# Macroscopic dielectric function obtained with the BS equation.
#  RPA L0 with KS energies and KS wavefunctions     LOCAL FIELD EFFECTS INCLUDED
# RESONANT-ONLY calculation
# Coulomb term constructed with full W(G1,G2)
# Scissor operator energy =  0.8000 [eV]
# Tolerance =  0.0500 0.0000
# npweps  = 59
# npwwfn  = 259
# nbands  = 6
# loband  = 2
# nkibz   = 64
# nkbz    = 64
# Lorentzian broadening =  0.1000 [eV]
# List of q-points for the optical limit:
# q =  0.938821, 0.000000, 0.000000, [Reduced coords] 
# q =  0.000000, 0.938821, 0.000000, [Reduced coords] 
# q =  0.000000, 0.000000, 0.938821, [Reduced coords] 
# q =  0.000000, 0.813043, 0.813043, [Reduced coords] 
# q =  0.813043, 0.000000, 0.813043, [Reduced coords] 
# q =  0.813043, 0.813043, 0.000000, [Reduced coords] 
# omega [eV]    RE(eps(q=1)) IM(eps(q=1) RE(eps(q=2) ) ... 
  0.000   15.8604    0.0000   15.6305    0.0000   12.7886    0.0000   12.1739    0.0000   15.0216    0.0000   15.3604    0.0000
  0.020   15.8608    0.0041   15.6309    0.0041   12.7889    0.0030   12.1741    0.0027   15.0220    0.0039   15.3608    0.0040
  0.040   15.8620    0.0083   15.6321    0.0081   12.7898    0.0060   12.1750    0.0054   15.0232    0.0078   15.3620    0.0079
  0.060   15.8641    0.0124   15.6341    0.0122   12.7913    0.0090   12.1763    0.0081   15.0251    0.0117   15.3640    0.0119
  0.080   15.8670    0.0166   15.6370    0.0163   12.7934    0.0120   12.1782    0.0109   15.0278    0.0155   15.3668    0.0159
  0.100   15.8707    0.0208   15.6406    0.0203   12.7961    0.0150   12.1806    0.0136   15.0313    0.0194   15.3703    0.0199
  0.120   15.8753    0.0249   15.6451    0.0244   12.7994    0.0181   12.1836    0.0163   15.0356    0.0233   15.3747    0.0239
  0.140   15.8806    0.0291   15.6504    0.0285   12.8033    0.0211   12.1871    0.0190   15.0406    0.0273   15.3799    0.0279
  0.160   15.8869    0.0333   15.6565    0.0326   12.8078    0.0241   12.1912    0.0218   15.0464    0.0312   15.3858    0.0319
  0.180   15.8939    0.0375   15.6634    0.0367   12.8129    0.0272   12.1958    0.0245   15.0530    0.0351   15.3926    0.0359
  0.200   15.9018    0.0417   15.6711    0.0409   12.8187    0.0302   12.2010    0.0273   15.0604    0.0391   15.4002    0.0400
  0.220   15.9105    0.0459   15.6797    0.0450   12.8250    0.0333   12.2067    0.0300   15.0686    0.0430   15.4085    0.0440
  0.240   15.9201    0.0502   15.6891    0.0492   12.8320    0.0364   12.2130    0.0328   15.0776    0.0470   15.4177    0.0481
  0.260   15.9305    0.0544   15.6993    0.0534   12.8395    0.0394   12.2198    0.0356   15.0874    0.0510   15.4277    0.0522
  0.280   15.9418    0.0587   15.7104    0.0576   12.8477    0.0425   12.2271    0.0384   15.0979    0.0550   15.4385    0.0563
  0.300   15.9540    0.0630   15.7223    0.0618   12.8565    0.0457   12.2351    0.0412   15.1093    0.0590   15.4502    0.0604
  0.320   15.9670    0.0673   15.7350    0.0660   12.8659    0.0488   12.2436    0.0440   15.1215    0.0631   15.4626    0.0646
  0.340   15.9808    0.0717   15.7486    0.0703   12.8759    0.0519   12.2526    0.0468   15.1344    0.0672   15.4759    0.0687
  0.360   15.9955    0.0761   15.7630    0.0746   12.8866    0.0551   12.2622    0.0496   15.1482    0.0713   15.4900    0.0729
  0.380   16.0111    0.0805   15.7783    0.0789   12.8979    0.0583   12.2724    0.0525   15.1629    0.0754   15.5050    0.0772
  0.400   16.0276    0.0849   15.7945    0.0832   12.9098    0.0615   12.2832    0.0554   15.1783    0.0795   15.5208    0.0814
  0.420   16.0450    0.0894   15.8115    0.0876   12.9224    0.0647   12.2945    0.0583   15.1946    0.0837   15.5375    0.0857
  0.440   16.0633    0.0939   15.8294    0.0920   12.9357    0.0679   12.3064    0.0612   15.2117    0.0879   15.5550    0.0900
  0.460   16.0824    0.0984   15.8482    0.0965   12.9495    0.0712   12.3189    0.0641   15.2296    0.0922   15.5734    0.0943
  0.480   16.1025    0.1030   15.8679    0.1009   12.9641    0.0745   12.3320    0.0671   15.2484    0.0965   15.5926    0.0987
  0.500   16.1235    0.1076   15.8885    0.1055   12.9792    0.0778   12.3457    0.0701   15.2681    0.1008   15.6127    0.1031
  0.520   16.1454    0.1122   15.9099    0.1100   12.9951    0.0812   12.3600    0.0731   15.2886    0.1051   15.6337    0.1076
  0.540   16.1682    0.1169   15.9323    0.1146   13.0116    0.0845   12.3748    0.0761   15.3100    0.1095   15.6556    0.1121
  0.560   16.1920    0.1217   15.9556    0.1193   13.0288    0.0880   12.3903    0.0791   15.3323    0.1140   15.6784    0.1166
  0.580   16.2167    0.1264   15.9799    0.1240   13.0467    0.0914   12.4064    0.0822   15.3555    0.1185   15.7021    0.1212
  0.600   16.2424    0.1313   16.0051    0.1287   13.0653    0.0949   12.4231    0.0853   15.3795    0.1230   15.7268    0.1259
  0.620   16.2691    0.1362   16.0312    0.1335   13.0845    0.0984   12.4405    0.0885   15.4045    0.1276   15.7523    0.1306
  0.640   16.2967    0.1411   16.0583    0.1383   13.1045    0.1019   12.4584    0.0916   15.4304    0.1322   15.7788    0.1353
  0.660   16.3253    0.1461   16.0864    0.1432   13.1252    0.1055   12.4770    0.0948   15.4572    0.1369   15.8063    0.1401
  0.680   16.3550    0.1511   16.1154    0.1482   13.1466    0.1091   12.4962    0.0981   15.4850    0.1416   15.8347    0.1449
  0.700   16.3856    0.1563   16.1454    0.1532   13.1687    0.1128   12.5161    0.1013   15.5137    0.1464   15.8641    0.1498
  0.720   16.4173    0.1614   16.1765    0.1583   13.1915    0.1165   12.5366    0.1046   15.5433    0.1512   15.8944    0.1548
  0.740   16.4500    0.1667   16.2085    0.1634   13.2151    0.1202   12.5578    0.1080   15.5740    0.1562   15.9258    0.1598
  0.760   16.4837    0.1720   16.2416    0.1686   13.2395    0.1240   12.5797    0.1113   15.6056    0.1611   15.9581    0.1649
  0.780   16.5185    0.1774   16.2757    0.1739   13.2646    0.1278   12.6022    0.1147   15.6382    0.1662   15.9915    0.1701
  0.800   16.5544    0.1828   16.3109    0.1792   13.2905    0.1317   12.6255    0.1182   15.6718    0.1713   16.0259    0.1753
  0.820   16.5914    0.1883   16.3472    0.1846   13.3171    0.1357   12.6494    0.1217   15.7065    0.1765   16.0614    0.1806
  0.840   16.6295    0.1940   16.3845    0.1901   13.3445    0.1397   12.6740    0.1252   15.7422    0.1817   16.0979    0.1860
  0.860   16.6687    0.1996   16.4230    0.1957   13.3728    0.1437   12.6993    0.1288   15.7789    0.1870   16.1355    0.1914
  0.880   16.7091    0.2054   16.4625    0.2014   13.4018    0.1478   12.7254    0.1325   15.8167    0.1925   16.1742    0.1970
  0.900   16.7506    0.2113   16.5032    0.2071   13.4317    0.1520   12.7522    0.1362   15.8556    0.1980   16.2140    0.2026
  0.920   16.7933    0.2172   16.5451    0.2129   13.4624    0.1562   12.7797    0.1399   15.8956    0.2035   16.2549    0.2083
  0.940   16.8372    0.2233   16.5881    0.2189   13.4940    0.1605   12.8079    0.1437   15.9368    0.2092   16.2970    0.2141
  0.960   16.8823    0.2294   16.6323    0.2249   13.5264    0.1648   12.8370    0.1475   15.9790    0.2150   16.3403    0.2200
  0.980   16.9286    0.2357   16.6777    0.2310   13.5597    0.1693   12.8668    0.1514   16.0224    0.2208   16.3847    0.2260
  1.000   16.9762    0.2421   16.7244    0.2372   13.5939    0.1738   12.8973    0.1554   16.0670    0.2268   16.4303    0.2321
  1.020   17.0251    0.2485   16.7722    0.2436   13.6290    0.1783   12.9287    0.1594   16.1128    0.2329   16.4772    0.2383
  1.040   17.0753    0.2551   16.8214    0.2500   13.6650    0.1830   12.9609    0.1635   16.1598    0.2390   16.5253    0.2446
  1.060   17.1268    0.2618   16.8719    0.2566   13.7019    0.1877   12.9939    0.1676   16.2081    0.2453   16.5746    0.2510
  1.080   17.1796    0.2687   16.9237    0.2633   13.7398    0.1925   13.0277    0.1719   16.2576    0.2517   16.6253    0.2576
  1.100   17.2338    0.2756   16.9768    0.2701   13.7786    0.1974   13.0624    0.1761   16.3084    0.2582   16.6773    0.2642
  1.120   17.2894    0.2827   17.0313    0.2770   13.8184    0.2023   13.0980    0.1805   16.3605    0.2649   16.7306    0.2710
  1.140   17.3464    0.2899   17.0872    0.2841   13.8592    0.2074   13.1344    0.1849   16.4139    0.2717   16.7852    0.2780
  1.160   17.4049    0.2973   17.1445    0.2913   13.9011    0.2126   13.1717    0.1895   16.4687    0.2786   16.8413    0.2850
  1.180   17.4649    0.3048   17.2032    0.2987   13.9440    0.2178   13.2099    0.1941   16.5249    0.2856   16.8988    0.2922
  1.200   17.5263    0.3125   17.2634    0.3062   13.9879    0.2232   13.2490    0.1987   16.5825    0.2928   16.9577    0.2996
  1.220   17.5893    0.3203   17.3252    0.3139   14.0329    0.2287   13.2891    0.2035   16.6415    0.3002   17.0181    0.3071
  1.240   17.6539    0.3283   17.3885    0.3217   14.0790    0.2342   13.3301    0.2083   16.7020    0.3077   17.0800    0.3148
  1.260   17.7201    0.3365   17.4533    0.3297   14.1262    0.2399   13.3721    0.2133   16.7640    0.3153   17.1435    0.3226
  1.280   17.7879    0.3448   17.5198    0.3379   14.1746    0.2457   13.4151    0.2183   16.8276    0.3231   17.2085    0.3306
  1.300   17.8574    0.3534   17.5879    0.3462   14.2241    0.2517   13.4591    0.2235   16.8927    0.3311   17.2751    0.3388
  1.320   17.9286    0.3621   17.6577    0.3548   14.2748    0.2577   13.5042    0.2287   16.9594    0.3393   17.3434    0.3472
  1.340   18.0016    0.3710   17.7291    0.3635   14.3268    0.2639   13.5503    0.2341   17.0278    0.3477   17.4134    0.3557
  1.360   18.0763    0.3801   17.8024    0.3725   14.3799    0.2702   13.5974    0.2395   17.0979    0.3563   17.4850    0.3645
  1.380   18.1529    0.3895   17.8774    0.3816   14.4344    0.2767   13.6457    0.2451   17.1697    0.3650   17.5585    0.3735
  1.400   18.2314    0.3991   17.9543    0.3910   14.4901    0.2833   13.6951    0.2508   17.2432    0.3740   17.6337    0.3826
  1.420   18.3118    0.4089   18.0331    0.4006   14.5472    0.2901   13.7456    0.2566   17.3186    0.3832   17.7108    0.3921
  1.440   18.3941    0.4189   18.1138    0.4104   14.6056    0.2970   13.7973    0.2626   17.3958    0.3927   17.7898    0.4017
  1.460   18.4785    0.4292   18.1964    0.4205   14.6655    0.3041   13.8502    0.2686   17.4748    0.4023   17.8707    0.4116
  1.480   18.5650    0.4398   18.2811    0.4309   14.7267    0.3113   13.9043    0.2749   17.5559    0.4123   17.9536    0.4217
  1.500   18.6536    0.4507   18.3679    0.4415   14.7894    0.3188   13.9597    0.2812   17.6389    0.4224   18.0385    0.4321
  1.520   18.7443    0.4618   18.4568    0.4524   14.8536    0.3264   14.0163    0.2877   17.7240    0.4329   18.1255    0.4428
  1.540   18.8373    0.4732   18.5479    0.4636   14.9194    0.3342   14.0743    0.2944   17.8111    0.4436   18.2147    0.4538
  1.560   18.9326    0.4850   18.6412    0.4750   14.9867    0.3422   14.1335    0.3012   17.9005    0.4547   18.3061    0.4651
  1.580   19.0302    0.4970   18.7369    0.4869   15.0556    0.3505   14.1942    0.3082   17.9920    0.4660   18.3997    0.4767
  1.600   19.1303    0.5094   18.8349    0.4990   15.1261    0.3589   14.2563    0.3154   18.0858    0.4776   18.4957    0.4886
  1.620   19.2328    0.5222   18.9353    0.5115   15.1984    0.3676   14.3197    0.3227   18.1820    0.4896   18.5940    0.5008
  1.640   19.3379    0.5353   19.0383    0.5243   15.2724    0.3765   14.3847    0.3302   18.2805    0.5019   18.6948    0.5134
  1.660   19.4457    0.5488   19.1438    0.5375   15.3482    0.3857   14.4512    0.3379   18.3815    0.5146   18.7982    0.5264
  1.680   19.5561    0.5627   19.2520    0.5511   15.4258    0.3951   14.5192    0.3459   18.4851    0.5277   18.9041    0.5398
  1.700   19.6694    0.5770   19.3629    0.5652   15.5053    0.4048   14.5889    0.3540   18.5913    0.5412   19.0127    0.5535
  1.720   19.7855    0.5918   19.4767    0.5796   15.5868    0.4148   14.6601    0.3624   18.7002    0.5550   19.1241    0.5677
  1.740   19.9046    0.6070   19.5933    0.5945   15.6703    0.4250   14.7330    0.3709   18.8119    0.5694   19.2384    0.5824
  1.760   20.0268    0.6227   19.7129    0.6099   15.7558    0.4356   14.8077    0.3798   18.9265    0.5841   19.3555    0.5975
  1.780   20.1521    0.6390   19.8356    0.6258   15.8434    0.4465   14.8841    0.3888   19.0440    0.5994   19.4757    0.6131
  1.800   20.2806    0.6557   19.9615    0.6421   15.9333    0.4577   14.9624    0.3982   19.1646    0.6151   19.5991    0.6292
  1.820   20.4125    0.6730   20.0907    0.6591   16.0254    0.4693   15.0425    0.4078   19.2883    0.6314   19.7256    0.6458
  1.840   20.5479    0.6909   20.2233    0.6765   16.1198    0.4813   15.1246    0.4177   19.4153    0.6482   19.8556    0.6630
  1.860   20.6869    0.7094   20.3594    0.6946   16.2166    0.4936   15.2086    0.4279   19.5457    0.6656   19.9889    0.6808
  1.880   20.8295    0.7285   20.4991    0.7133   16.3159    0.5064   15.2947    0.4384   19.6796    0.6836   20.1258    0.6992
  1.900   20.9760    0.7483   20.6426    0.7327   16.4178    0.5196   15.3829    0.4492   19.8171    0.7022   20.2665    0.7183
  1.920   21.1265    0.7688   20.7899    0.7528   16.5223    0.5332   15.4733    0.4603   19.9583    0.7215   20.4109    0.7381
  1.940   21.2811    0.7900   20.9413    0.7736   16.6295    0.5473   15.5659    0.4719   20.1033    0.7415   20.5593    0.7586
  1.960   21.4400    0.8121   21.0968    0.7951   16.7395    0.5619   15.6608    0.4837   20.2524    0.7623   20.7118    0.7798
  1.980   21.6032    0.8349   21.2567    0.8175   16.8525    0.5770   15.7581    0.4960   20.4057    0.7838   20.8686    0.8019
  2.000   21.7711    0.8587   21.4210    0.8407   16.9685    0.5927   15.8578    0.5087   20.5633    0.8062   21.0298    0.8248
  2.020   21.9437    0.8833   21.5900    0.8649   17.0877    0.6089   15.9602    0.5218   20.7253    0.8294   21.1955    0.8486
  2.040   22.1212    0.9089   21.7638    0.8899   17.2101    0.6258   16.0651    0.5354   20.8920    0.8536   21.3661    0.8734
  2.060   22.3038    0.9356   21.9426    0.9160   17.3359    0.6433   16.1727    0.5494   21.0635    0.8787   21.5416    0.8991
  2.080   22.4918    0.9633   22.1267    0.9432   17.4652    0.6615   16.2832    0.5640   21.2401    0.9049   21.7222    0.9260
  2.100   22.6854    0.9922   22.3162    0.9714   17.5981    0.6804   16.3966    0.5790   21.4219    0.9322   21.9082    0.9539
  2.120   22.8847    1.0223   22.5113    1.0009   17.7348    0.7001   16.5130    0.5946   21.6091    0.9606   22.0998    0.9831
  2.140   23.0901    1.0537   22.7124    1.0317   17.8754    0.7206   16.6325    0.6108   21.8021    0.9902   22.2973    1.0136
  2.160   23.3017    1.0865   22.9196    1.0638   18.0202    0.7419   16.7553    0.6277   22.0009    1.0212   22.5008    1.0454
  2.180   23.5198    1.1208   23.1332    1.0973   18.1692    0.7642   16.8815    0.6451   22.2060    1.0535   22.7106    1.0786
  2.200   23.7449    1.1566   23.3535    1.1323   18.3227    0.7874   17.0111    0.6633   22.4175    1.0874   22.9271    1.1134
  2.220   23.9770    1.1940   23.5807    1.1690   18.4807    0.8117   17.1444    0.6822   22.6357    1.1228   23.1506    1.1498
  2.240   24.2166    1.2333   23.8153    1.2074   18.6437    0.8370   17.2815    0.7018   22.8610    1.1598   23.3813    1.1880
  2.260   24.4641    1.2744   24.0576    1.2477   18.8117    0.8635   17.4224    0.7223   23.0937    1.1987   23.6196    1.2281
  2.280   24.7197    1.3175   24.3079    1.2900   18.9850    0.8913   17.5675    0.7436   23.3342    1.2395   23.8658    1.2701
  2.300   24.9839    1.3628   24.5666    1.3343   19.1638    0.9205   17.7169    0.7658   23.5827    1.2824   24.1205    1.3144
  2.320   25.2572    1.4104   24.8341    1.3810   19.3484    0.9510   17.8706    0.7890   23.8398    1.3274   24.3839    1.3610
  2.340   25.5399    1.4605   25.1109    1.4301   19.5391    0.9831   18.0291    0.8133   24.1059    1.3749   24.6566    1.4100
  2.360   25.8325    1.5133   25.3974    1.4818   19.7362    1.0169   18.1923    0.8387   24.3814    1.4249   24.9390    1.4618
  2.380   26.1357    1.5689   25.6942    1.5364   19.9400    1.0524   18.3606    0.8652   24.6668    1.4776   25.2316    1.5165
  2.400   26.4498    1.6276   26.0019    1.5940   20.1508    1.0899   18.5342    0.8930   24.9626    1.5332   25.5351    1.5743
  2.420   26.7756    1.6897   26.3209    1.6549   20.3690    1.1294   18.7134    0.9221   25.2695    1.5921   25.8500    1.6356
  2.440   27.1137    1.7555   26.6520    1.7194   20.5951    1.1712   18.8983    0.9527   25.5880    1.6544   26.1770    1.7005
  2.460   27.4648    1.8251   26.9958    1.7877   20.8294    1.2153   19.0894    0.9848   25.9188    1.7205   26.5168    1.7695
  2.480   27.8296    1.8990   27.3531    1.8603   21.0725    1.2622   19.2868    1.0186   26.2627    1.7906   26.8701    1.8429
  2.500   28.2089    1.9776   27.7246    1.9375   21.3248    1.3119   19.4909    1.0542   26.6204    1.8651   27.2378    1.9212
  2.520   28.6037    2.0612   28.1114    2.0197   21.5868    1.3647   19.7021    1.0917   26.9927    1.9445   27.6209    2.0047
  2.540   29.0150    2.1504   28.5143    2.1073   21.8592    1.4210   19.9207    1.1313   27.3807    2.0291   28.0202    2.0941
  2.560   29.4437    2.2456   28.9343    2.2010   22.1426    1.4810   20.1472    1.1731   27.7852    2.1195   28.4370    2.1899
  2.580   29.8910    2.3475   29.3726    2.3012   22.4378    1.5451   20.3819    1.2173   28.2074    2.2162   28.8723    2.2928
  2.600   30.3581    2.4567   29.8304    2.4087   22.7454    1.6138   20.6253    1.2642   28.6484    2.3199   29.3276    2.4036
  2.620   30.8465    2.5741   30.3091    2.5243   23.0664    1.6876   20.8780    1.3139   29.1097    2.4312   29.8041    2.5232
  2.640   31.3576    2.7004   30.8101    2.6489   23.4016    1.7669   21.1405    1.3668   29.5925    2.5510   30.3036    2.6526
  2.660   31.8931    2.8367   31.3352    2.7833   23.7521    1.8525   21.4134    1.4230   30.0985    2.6801   30.8277    2.7931
  2.680   32.4547    2.9841   31.8860    2.9289   24.1190    1.9451   21.6973    1.4830   30.6295    2.8198   31.3784    2.9460
  2.700   33.0446    3.1440   32.4646    3.0869   24.5035    2.0455   21.9929    1.5471   31.1872    2.9711   31.9578    3.1131
  2.720   33.6648    3.3179   33.0732    3.2589   24.9070    2.1548   22.3010    1.6157   31.7738    3.1354   32.5683    3.2964
  2.740   34.3179    3.5076   33.7142    3.4467   25.3310    2.2742   22.6225    1.6893   32.3918    3.3145   33.2126    3.4981
  2.760   35.0066    3.7153   34.3903    3.6526   25.7772    2.4050   22.9583    1.7684   33.0435    3.5100   33.8935    3.7211
  2.780   35.7338    3.9434   35.1045    3.8790   26.2474    2.5490   23.3093    1.8536   33.7321    3.7243   34.6143    3.9689
  2.800   36.5030    4.1950   35.8602    4.1291   26.7438    2.7082   23.6768    1.9456   34.4606    3.9599   35.3787    4.2457
  2.820   37.3178    4.4736   36.6610    4.4064   27.2685    2.8852   24.0619    2.0452   35.2328    4.2198   36.1906    4.5567
  2.840   38.1824    4.7837   37.5111    4.7156   27.8241    3.0829   24.4659    2.1534   36.0525    4.5076   37.0543    4.9083
  2.860   39.1013    5.1305   38.4150    5.0621   28.4133    3.3052   24.8905    2.2712   36.9245    4.8277   37.9744    5.3088
  2.880   40.0795    5.5205   39.3777    5.4526   29.0391    3.5568   25.3373    2.4000   37.8538    5.1851   38.9558    5.7686
  2.900   41.1223    5.9621   40.4043    5.8955   29.7044    3.8437   25.8081    2.5411   38.8461    5.5863   40.0028    6.3009
  2.920   42.2352    6.4652   41.5004    6.4016   30.4121    4.1735   26.3050    2.6964   39.9079    6.0387   41.1195    6.9231
  2.940   43.4237    7.0430   42.6713    6.9843   31.1648    4.5560   26.8304    2.8681   41.0465    6.5518   42.3074    7.6574
  2.960   44.6924    7.7116   43.9214    7.6605   31.9638    5.0037   27.3869    3.0586   42.2698    7.1372   43.5644    8.5330
  2.980   46.0441    8.4917   45.2530    8.4519   32.8078    5.5326   27.9773    3.2710   43.5870    7.8096   44.8801    9.5869
  3.000   47.4774    9.4087   46.6639    9.3852   33.6910    6.1624   28.6050    3.5092   45.0077    8.5871   46.2294   10.8647
  3.020   48.9832   10.4927   48.1436   10.4919   34.5993    6.9158   29.2735    3.7776   46.5424    9.4933   47.5617   12.4174
  3.040   50.5397   11.7751   49.6681   11.8051   35.5048    7.8149   29.9870    4.0821   48.2018   10.5581   48.7857   14.2891
  3.060   52.1081   13.2797   51.1947   13.3500   36.3618    8.8713   30.7497    4.4297   49.9960   11.8204   49.7561   16.4855
  3.080   53.6349   15.0051   52.6650   15.1249   37.1095   10.0670   31.5665    4.8295   51.9323   13.3309   50.2853   18.9145
  3.100   55.0773   16.9051   54.0311   17.0809   37.6983   11.3332   32.4424    5.2930   54.0126   15.1559   50.2239   21.3191
  3.120   56.4562   18.8987   55.3114   19.1328   38.1451   12.5592   33.3824    5.8348   56.2267   17.3821   49.6331   23.3014
  3.140   57.8915   20.9464   56.6273   21.2388   38.5715   13.6681   34.3908    6.4740   58.5417   20.1212   48.9075   24.5470
  3.160   59.5414   23.1455   58.1375   23.5023   39.1445   14.7133   35.4702    7.2354   60.8837   23.5127   48.6128   25.1135
  3.180   61.4732   25.7292   59.8987   26.1685   39.9485   15.8748   36.6198    8.1508   63.1077   27.7167   49.1248   25.4281
  3.200   63.5940   28.9656   61.7899   29.5145   40.9232   17.3556   37.8319    9.2613   64.9573   32.8850   50.4740   26.0026
  3.220   65.6720   33.0640   63.5329   33.7411   41.8950   19.2891   39.0867   10.6176   66.0317   39.0842   52.4650   27.2225
  3.240   67.3865   38.1229   64.7495   38.9042   42.6388   21.6956   40.3452   12.2797   65.8143   46.1629   54.8289   29.3344
  3.260   68.3968   44.1066   65.0528   44.8737   42.9505   24.4705   41.5392   14.3140   63.8541   53.6325   57.2714   32.5110
  3.280   68.4170   50.8902   64.1627   51.3790   42.7286   27.4307   42.5568   16.7853   60.0630   60.7765   59.4391   36.8877
  3.300   67.1758   58.3739   61.9039   58.1530   41.9764   30.4316   43.2205   19.7355   54.7667   67.0656   60.8536   42.5267
  3.320   64.2001   66.4347   58.0169   64.9223   40.6674   33.4046   43.2698   23.1264   48.2497   72.3600   60.8793   49.2821
  3.340   58.7703   74.5163   52.1680   71.0821   38.6819   36.1883   42.4042   26.7415   40.4475   76.4290   58.8428   56.5873
  3.360   50.4810   81.2632   44.4654   75.5790   36.0260   38.4047   40.4364   30.1262   31.4767   78.5169   54.4218   63.3507
  3.380   40.1079   84.9594   35.8634   77.5119   33.0778   39.6950   37.4957   32.6868   22.2837   77.8657   48.1391   68.3158
  3.400   29.6726   84.7956   27.7251   76.8310   30.4258   40.1068   34.1103   33.9544   14.3239   74.5944   41.3250   70.8934
  3.420   21.1905   81.6299   21.0507   74.2775   28.4111   40.1034   31.0616   33.8774    8.6374   69.8010   35.2263   71.6018
  3.440   15.4286   77.2381   16.1632   70.8540   26.9236   40.1689   29.0084   32.9383    5.2850   64.9254   30.2020   71.4307
  3.460   11.9228   73.1151   12.8258   67.3571   25.6195   40.4750   28.1229   31.9022    3.4340   60.9619   25.9687   70.9767
  3.480    9.6383   69.9266   10.5976   64.1677   24.2776   40.9062   28.0807   31.3882    1.9744   57.9860   22.2479   70.4022
  3.500    7.6825   67.4528    9.1350   61.3702   22.8860   41.3588   28.3323   31.6315    0.3044   55.2885   18.8626   69.7402
  3.520    5.9268   65.1220    8.2627   58.9425   21.4155   41.8319   28.3990   32.4810   -1.2538   52.1299   15.7804   68.8609
  3.540    4.7720   62.9234    7.9726   56.9115   19.7935   42.2364   28.1129   33.5720   -1.9126   48.5457   13.3541   67.8482
  3.560    4.1411   61.4238    8.2639   55.5245   18.1067   42.4486   27.6605   34.6830   -1.3378   45.2937   11.6140   67.4648
  3.580    3.2830   60.7074    8.8376   55.1439   16.4833   42.5534   27.2310   35.9975    0.0211   43.0962    9.5367   68.1688
  3.600    1.9744   60.0575    9.0838   55.8634   14.7990   42.6830   26.5734   37.8575    1.3264   42.0329    6.1858   69.0198
  3.620    0.8149   59.4498    8.4532   57.3369   12.8653   42.6648   25.0224   40.1960    2.1042   41.4721    2.2322   68.9249
  3.640   -0.6054   59.5497    6.7333   59.0599   10.8477   42.2223   22.0803   42.2104    2.7707   40.8705   -1.5134   68.4694
  3.660   -3.2597   59.7027    3.8349   60.6012    9.0617   41.4657   18.1743   42.7629    3.8495   40.6386   -5.9497   68.0781
  3.680   -6.6866   58.6308   -0.2638   61.3091    7.4134   40.6864   14.6570   41.4982    4.9547   41.4943  -11.5100   66.3581
  3.700   -9.6209   56.3411   -4.9693   60.4249    5.6005   39.7335   12.5839   39.3632    5.0959   43.4823  -16.6565   62.3953
  3.720  -11.7364   53.7572   -9.2143   57.9255    3.7971   38.2027   11.7366   37.6359    3.4323   45.7759  -20.0114   57.2269
  3.740  -13.6066   51.2414  -12.4524   54.5077    2.4730   36.1503   11.0393   36.7065   -0.0664   46.9755  -21.8097   52.1652
  3.760  -15.5374   48.3232  -14.8091   50.6561    1.7333   33.9069    9.7571   35.8111   -4.2875   45.9547  -22.8391   47.4442
  3.780  -17.0523   44.5640  -16.3438   46.3974    1.5228   31.5594    8.3665   34.0011   -7.6167   42.7695  -23.2805   42.7188
  3.800  -17.4627   40.2184  -16.7950   41.8490    1.9761   29.1752    7.9276   31.3649   -9.0881   38.5019  -22.8372   37.9738
  3.820  -16.5462   35.9651  -15.9978   37.4577    3.1923   27.0347    8.8518   28.7681   -8.7136   34.3065  -21.3881   33.5871
  3.840  -14.5522   32.3541  -14.1256   33.6993    5.0525   25.4474   10.8451   26.9059   -6.9962   30.8538  -19.1416   29.9085
  3.860  -11.8750   29.6305  -11.5335   30.8363    7.3217   24.5953   13.4500   26.0637   -4.4596   28.3776  -16.4146   27.0751
  3.880   -8.8514   27.8352   -8.5637   28.9352    9.7635   24.5524   16.2978   26.3209   -1.4824   26.8991  -13.4730   25.0754
  3.900   -5.7271   26.9325   -5.4854   27.9699   12.1584   25.3488   19.0887   27.7228    1.6883   26.3882  -10.5053   23.8462
  3.920   -2.6992   26.8739   -2.5232   27.8849   14.2659   26.9923   21.4835   30.3324    4.8696   26.8394   -7.6571   23.3208
  3.940    0.0311   27.5995    0.0970   28.5937   15.7815   29.4290   22.9804   34.1667    7.8644   28.2945   -5.0730   23.4296
  3.960    2.2299   28.9823    2.1379   29.9159   16.3481   32.4395   22.8407   38.9757   10.3700   30.8145   -2.9189   24.0582
  3.980    3.6876   30.7354    3.4471   31.5013   15.7069   35.5321   20.2810   43.8477   11.8800   34.3568   -1.3442   24.9800
  4.000    4.4150   32.3997    4.1736   32.9016   13.9944   38.0384   15.2683   47.0219   11.6890   38.4693   -0.3476   25.8379
  4.020    4.8332   33.6120    4.8454   33.9352   11.8443   39.5715    9.4819   46.8748    9.3655   41.8782    0.3685   26.3116
  4.040    5.5564   34.5263    5.9646   35.0183    9.8921   40.4082    5.5969   43.7518    5.9105   42.8369    1.2953   26.4096
  4.060    6.8213   35.8005    7.4403   36.9360    8.1436   41.1076    5.0205   39.9415    3.9790   41.1320    2.7599   26.5189
  4.080    8.2180   38.0941    8.4046   40.2484    6.1269   41.7222    7.1826   37.7848    5.4181   39.1552    4.7273   27.1325
  4.100    8.8615   41.6070    7.3795   44.5760    3.7586   41.6599   10.4323   38.7244    9.5446   39.8512    6.8832   28.6176
  4.120    7.7653   45.7601    3.3661   47.5902    1.7951   40.5626   12.3754   43.3143   13.9763   45.1275    8.7397   31.1514
  4.140    4.5895   49.0873   -0.8632   46.0036    1.0497   39.0491    9.7181   50.2117   14.8379   55.5393    9.6579   34.6307
  4.160    0.5467   50.1135    0.8621   42.4151    1.4721   38.2073    0.8733   54.2093    6.7098   67.6717    9.0070   38.4175
  4.180   -2.1774   49.0771    7.2594   46.1024    2.2124   38.7285   -8.9238   50.4075  -10.4175   71.1226    6.8352   41.2457
  4.200   -2.5587   48.0009    5.4239   58.8452    2.1215   40.5302  -13.1565   41.9638  -23.7379   61.3452    4.5992   42.2609
  4.220   -1.5364   48.8723   -9.6367   63.2798    0.3133   42.6188  -11.9015   34.3684  -25.6463   48.8527    4.0034   42.6104
  4.240   -1.2066   52.4379  -18.6362   54.1541   -2.9735   43.4066   -7.8427   29.5677  -20.7667   41.6183    4.6846   44.5946
  4.260   -3.9558   57.7063  -17.1091   46.3286   -6.0567   42.1184   -2.7243   27.5285  -14.5687   40.7221    4.1797   49.1442
  4.280  -10.9592   61.5529  -12.5321   45.0187   -7.3418   39.8689    2.6434   28.0216  -10.6884   45.0811   -0.0825   54.4116
  4.300  -19.8600   60.4718  -10.3599   49.0740   -6.9224   38.5435    7.7050   31.1681  -12.1044   52.2649   -7.8503   56.4899
  4.320  -25.9621   54.7442  -13.8938   54.6838   -6.3181   39.1820   11.4821   37.4626  -19.9038   57.5952  -15.0850   53.5161
  4.340  -27.2031   48.3053  -22.2427   56.1907   -7.4581   41.2491   11.6927   47.1808  -30.6232   56.6780  -18.3533   48.0650
  4.360  -25.1379   44.5452  -29.7116   51.5538  -11.1946   42.4781    4.4466   57.9917  -38.8612   50.0421  -17.8294   43.6575
  4.380  -22.7148   44.7120  -32.4782   44.4573  -15.6589   40.6759  -11.0360   61.9726  -42.5917   41.4751  -15.5066   42.0923
  4.400  -23.1516   47.9193  -31.3096   38.7321  -17.9458   36.6370  -25.1309   53.5968  -42.8793   33.6551  -13.5967   43.7244
  4.420  -28.3637   50.5161  -28.4122   35.8664  -17.4807   32.9838  -29.2586   40.2054  -41.2836   27.3928  -14.3596   47.7205
  4.440  -35.7827   48.2762  -25.8113   35.9980  -15.7138   31.3508  -25.7322   29.8109  -38.8398   22.6025  -19.4050   51.3815
  4.460  -40.4570   41.7685  -25.4758   38.3233  -14.5387   31.8694  -18.9988   24.2110  -36.0840   18.9738  -27.2683   50.8844
  4.480  -40.9949   34.7948  -28.7546   40.3957  -15.4921   33.2786  -11.4184   23.0893  -33.2538   16.2115  -33.3605   45.5168
  4.500  -38.9483   29.6642  -34.1089   38.9684  -18.5223   33.2804   -4.5055   26.5279  -30.4262   14.0874  -35.0605   38.7573
  4.520  -36.0808   26.8822  -37.6358   33.9349  -21.4515   30.6942   -0.9646   34.8060  -27.5818   12.4338  -33.5411   33.8996
  4.540  -33.7781   26.1634  -37.7191   28.3237  -22.3983   26.7801   -5.3537   45.0695  -24.6112   11.1214  -31.3098   32.0070
  4.560  -33.1425   26.5633  -35.5521   24.4102  -21.3887   23.2838  -17.4100   48.7483  -21.2406   10.0183  -30.6529   32.2673
  4.580  -34.3660   26.4171  -32.9516   22.8223  -19.3128   21.0422  -27.5974   42.8863  -16.6803    8.8189  -32.4874   32.3729
  4.600  -36.1272   24.5501  -31.6148   22.9935  -17.0641   20.2260  -31.1680   34.1728   -7.5531    5.2161  -35.3227   30.3375
  4.620  -36.9462   21.4469  -32.3300   23.0892  -15.4906   20.5831  -30.4545   27.0521  -24.1798  -35.9630  -37.0378   26.5271
  4.640  -36.5363   18.2115  -33.7945   21.4842  -15.1829   21.2186  -27.9849   22.1375  -31.3851    2.2728  -37.0844   22.4172
  4.660  -35.3164   15.4427  -34.3058   18.6696  -15.6432   20.9758  -24.9686   18.9646  -24.2781    5.8384  -35.9805   18.8762
  4.680  -33.7103   13.2565  -33.6425   15.8444  -15.6275   19.8401  -21.8705   17.0737  -20.3903    6.8834  -34.3031   16.1004
  4.700  -31.9683   11.5853  -32.2938   13.5451  -14.7035   18.7242  -18.8588   16.1856  -17.5296    7.6318  -32.4074   14.0195
  4.720  -30.2114   10.3378  -30.6654   11.8294  -13.2254   18.2460  -16.0149   16.1815  -15.1204    8.5040  -30.4789   12.5215
  4.740  -28.4938    9.4523  -28.9815   10.6268  -11.6473   18.5832  -13.4435   17.0630  -12.9913    9.7007  -28.6234   11.5256
  4.760  -26.8544    8.9130  -27.3786    9.8696  -10.3515   19.7321  -11.3674   18.9029  -11.1626   11.3949  -26.9420   10.9876
  4.780  -25.3783    8.7467  -25.9953    9.4920   -9.7202   21.5882  -10.2344   21.7294   -9.8478   13.7407  -25.5941   10.8483
  4.800  -24.2890    8.9369  -24.9920    9.3357  -10.1637   23.8565  -10.7546   25.2425   -9.5145   16.7486  -24.7827   10.8972
  4.820  -23.8690    9.1335  -24.3844    9.0838  -11.9674   25.9195  -13.5567   28.3969  -10.8125   19.9627  -24.4987   10.6960
  4.840  -23.8220    8.7156  -23.8797    8.5229  -14.9427   26.9201  -18.2302   29.5238  -13.9903   22.1813  -24.2938    9.9684
  4.860  -23.4191    7.7994  -23.1908    7.7934  -18.2470   26.2712  -22.9181   27.7573  -18.0268   22.1335  -23.7466    8.9598
  4.880  -22.5760    6.9291  -22.2998    7.1178  -20.8452   24.1636  -25.8599   24.0495  -21.1534   19.9241  -22.8512    8.0247
  4.900  -21.5393    6.2939  -21.3027    6.5891  -22.1998   21.3673  -26.7575   19.9831  -22.5348   16.8610  -21.7720    7.3055
  4.920  -20.4601    5.8705  -20.2735    6.2137  -22.3888   18.6195  -26.2341   16.4818  -22.4874   14.0274  -20.6308    6.8068
  4.940  -19.3929    5.6107  -19.2492    5.9762  -21.7659   16.3244  -24.9537   13.7783  -21.6187   11.8171  -19.4866    6.5011
  4.960  -18.3513    5.4845  -18.2453    5.8650  -20.6780   14.6133  -23.3371   11.8023  -20.3648   10.2370  -18.3637    6.3685
  4.980  -17.3361    5.4812  -17.2699    5.8782  -19.3796   13.4900  -21.5999   10.4216  -18.9609    9.1862  -17.2747    6.4063
  5.000  -16.3469    5.6066  -16.3329    6.0245  -18.0536   12.9256  -19.8405    9.5309  -17.5191    8.5707  -16.2362    6.6302
  5.020  -15.3894    5.8819  -15.4543    6.3222  -16.8633   12.8924  -18.1022    9.0748  -16.0932    8.3343  -15.2853    7.0723
  5.040  -14.4858    6.3446  -14.6767    6.7945  -16.0067   13.3449  -16.4172    9.0534  -14.7197    8.4618  -14.5046    7.7714
  5.060  -13.6934    7.0473  -14.0798    7.4536  -15.7424   14.1363  -14.8508    9.5243  -13.4494    8.9751  -14.0562    8.7324
  5.080  -13.1377    8.0413  -13.7898    8.2595  -16.2969   14.8820  -13.5724   10.5861  -12.3826    9.9211  -14.1847    9.8149
  5.100  -13.0589    9.3101  -13.9374    9.0482  -17.5544   14.9596  -12.9632   12.2754  -11.7142   11.3331  -15.0428   10.5779
  5.120  -13.7909   10.5934  -14.5036    9.5078  -18.8263   13.9638  -13.6232   14.2386  -11.7634   13.1251  -16.2695   10.4319
  5.140  -15.4394   11.1925  -15.1557    9.3872  -19.3121   12.2197  -15.7827   15.3650  -12.8785   14.9080  -17.0107    9.3566
  5.160  -17.2903   10.3622  -15.4347    8.8286  -18.7658   10.4906  -18.3439   14.5934  -15.0672   15.9265  -16.7996    8.0640
  5.180  -18.1493    8.3399  -15.1888    8.2882  -17.4540    9.4170  -19.7983   12.4263  -17.6293   15.5371  -15.8604    7.2198
  5.200  -17.5828    6.1388  -14.6536    8.1458  -15.9269    9.4557  -19.8998   10.1100  -19.5762   13.8948  -14.6442    7.1165
  5.220  -15.8425    4.4435  -14.2537    8.5037  -15.2833   10.7128  -19.1906    8.2617  -20.4686   11.7522  -13.6407    7.8341
  5.240  -12.9563    3.6095  -14.4091    9.1073  -16.6133   11.6713  -18.1391    6.9387  -20.4833    9.7299  -13.4782    9.1701
  5.260   -8.2233    5.0773  -15.1931    9.3699  -18.2547   10.5616  -16.9813    6.0325  -19.9718    8.0729  -14.5969   10.2443
  5.280   -6.5276   15.9354  -16.0909    8.8816  -18.5129    8.6611  -15.8109    5.4359  -19.2033    6.7951  -16.2895    9.9990
  5.300  -20.0046   14.9999  -16.5318    7.8734  -17.8669    7.1482  -14.6558    5.0783  -18.3317    5.8329  -17.3054    8.6645
  5.320  -20.3317    8.3294  -16.4217    6.8105  -16.9105    6.1382  -13.5167    4.9256  -17.4325    5.1157  -17.3881    7.1703
  5.340  -18.5943    5.6902  -15.9468    5.9460  -15.8866    5.5072  -12.3863    4.9765  -16.5373    4.5879  -16.9101    5.9741
  5.360  -17.0462    4.4735  -15.2897    5.3350  -14.8740    5.1600  -11.2621    5.2648  -15.6549    4.2123  -16.1904    5.1254
  5.380  -15.7211    3.8384  -14.5613    4.9612  -13.9008    5.0549  -10.1684    5.8682  -14.7818    3.9686  -15.3874    4.5616
  5.400  -14.5297    3.5155  -13.8238    4.8029  -12.9951    5.1941   -9.2064    6.9165  -13.9086    3.8546  -14.5667    4.2245
  5.420  -13.3992    3.4180  -13.1246    4.8531  -12.2257    5.6094   -8.6686    8.5504  -13.0247    3.8904  -13.7549    4.0854
  5.440  -12.2743    3.5489  -12.5274    5.1161  -11.7529    6.3165   -9.1802   10.6559  -12.1280    4.1300  -12.9738    4.1479
  5.460  -11.1238    3.9969  -12.1403    5.5771  -11.8450    7.1717  -11.3330   12.2324  -11.2567    4.6841  -12.2729    4.4450
  5.480  -10.0048    4.9885  -12.1120    6.1268  -12.6372    7.6802  -14.2122   11.7695  -10.5943    5.7306  -11.7797    5.0120
  5.500   -9.3591    6.9168  -12.5027    6.4830  -13.6483    7.3116  -15.8471    9.6274  -10.7086    7.3250  -11.7424    5.7654
  5.520  -10.6798    9.5394  -13.0640    6.3444  -14.1347    6.2707  -15.9096    7.4141  -12.3602    8.5504  -12.3422    6.2794
  5.540  -14.3138    9.6911  -13.3666    5.7611  -13.9567    5.1712  -15.1540    5.8212  -14.4845    7.7912  -13.1710    6.0260
  5.560  -15.9643    6.9354  -13.2386    5.0754  -13.3823    4.3204  -14.1237    4.8195  -15.1637    5.9367  -13.5296    5.1901
  5.580  -15.3824    4.7300  -12.7914    4.5445  -12.6386    3.7417  -13.0396    4.2490  -14.7372    4.4654  -13.3192    4.3415
  5.600  -14.2446    3.5616  -12.1849    4.2528  -11.8299    3.3812  -11.9695    3.9981  -13.9731    3.5570  -12.8004    3.7293
  5.620  -13.0914    3.0045  -11.5310    4.2109  -10.9849    3.1936  -10.9291    4.0197  -13.1749    3.0191  -12.1669    3.3559
  5.640  -11.9956    2.8084  -10.9143    4.4237  -10.0931    3.1622   -9.9313    4.3217  -12.4168    2.7027  -11.5032    3.1747
  5.660  -10.9330    2.8906  -10.4405    4.9008   -9.1168    3.3076   -9.0239    4.9604  -11.7041    2.5266  -10.8398    3.1558
  5.680   -9.8799    3.2823  -10.2801    5.6065   -7.9849    3.7133   -8.3473    6.0191  -11.0255    2.4503  -10.1919    3.2972
  5.700   -8.8791    4.1294  -10.6355    6.3348   -6.5707    4.6178   -8.2139    7.5107  -10.3666    2.4573   -9.5855    3.6240
  5.720   -8.2181    5.6883  -11.4915    6.6491   -4.6854    6.7868   -9.0697    9.1072   -9.7144    2.5466   -9.0888    4.1809
  5.740   -8.8025    7.9379  -12.3793    6.2513   -3.1033   13.4343  -10.9758    9.9428   -9.0583    2.7308   -8.8612    4.9920
  5.760  -11.4791    9.2116  -12.7952    5.3953  -21.2698   23.0941  -13.0290    9.3688   -8.3933    3.0377   -9.1675    5.9187
  5.780  -14.0604    7.7454  -12.6851    4.5316  -23.2145    2.1569  -14.2387    7.8688   -7.7264    3.5157  -10.1305    6.4711
  5.800  -14.6048    5.4692  -12.2478    3.8895  -16.5346   -0.9773  -14.5242    6.2868   -7.0952    4.2407  -11.2503    6.1477
  5.820  -14.0255    3.8665  -11.6590    3.5125  -13.2102   -1.3277  -14.2642    5.0067   -6.6093    5.3144  -11.8059    5.1997
  5.840  -13.1495    2.9165  -11.0225    3.3953  -11.0467   -1.3421  -13.7679    4.0598   -6.5285    6.8122  -11.7062    4.2417
  5.860  -12.2355    2.3769  -10.4169    3.5487   -9.2285   -1.3007  -13.1947    3.3735   -7.3147    8.5715  -11.2345    3.5560
  5.880  -11.3210    2.1056   -9.9665    4.0002   -7.3097   -1.1920  -12.6124    2.8734   -9.3058    9.8355  -10.6124    3.1585
  5.900  -10.3744    2.0623   -9.9105    4.6984   -4.7872   -0.7908  -12.0445    2.5050  -11.8531    9.6028   -9.9435    3.0064
  5.920   -9.3444    2.3156  -10.4863    5.2782   -0.7698    1.0282  -11.4950    2.2329  -13.6242    8.0172   -9.2725    3.0791
  5.940   -8.2361    3.1340  -11.4070    5.1638    3.3994   10.1116  -10.9585    2.0359  -14.2077    6.1416   -8.6378    3.3943
  5.960   -7.5721    5.1256  -11.9553    4.4057  -10.8298   17.5513  -10.4241    1.9057  -14.0371    4.6072   -8.1210    4.0045
  5.980   -9.5709    7.6932  -11.9378    3.5624  -15.5282    8.9707   -9.8766    1.8478  -13.5502    3.4964   -7.9178    4.9493
