# Phonon frequencies in cm-1
    1           0.000           0.000           0.000         119.895         138.833         149.262         158.679         186.896         228.513         247.352         268.418         282.881
    2           0.890           0.975           2.124         119.907         138.834         149.264         158.670         186.895         228.519         247.348         268.412         282.878
    3           1.781           1.950           4.249         119.944         138.835         149.271         158.640         186.891         228.536         247.335         268.393         282.870
    4           2.671           2.924           6.372         120.004         138.836         149.283         158.591         186.884         228.564         247.314         268.363         282.855
    5           3.561           3.899           8.496         120.088         138.839         149.300         158.522         186.875         228.604         247.285         268.320         282.835
    6           4.452           4.874          10.619         120.196         138.843         149.321         158.433         186.864         228.655         247.247         268.265         282.809
    7           5.343           5.848          12.741         120.325         138.848         149.347         158.325         186.849         228.718         247.200         268.198         282.777
    8           6.235           6.823          14.862         120.477         138.856         149.378         158.198         186.833         228.791         247.146         268.118         282.739
    9           7.126           7.797          16.982         120.649         138.867         149.413         158.051         186.813         228.875         247.082         268.027         282.696
   10           8.018           8.771          19.101         120.841         138.883         149.454         157.885         186.792         228.970         247.010         267.923         282.646
   11           8.911           9.744          21.219         121.050         138.903         149.499         157.700         186.767         229.076         246.930         267.807         282.591
   12           9.804          10.717          23.335         121.277         138.929         149.548         157.497         186.741         229.193         246.840         267.679         282.531
   13          10.698          11.691          25.450         121.518         138.962         149.602         157.275         186.711         229.319         246.742         267.539         282.464
   14          11.592          12.663          27.563         121.771         139.004         149.661         157.034         186.680         229.456         246.636         267.387         282.392
   15          12.487          13.636          29.674         122.036         139.057         149.725         156.775         186.645         229.603         246.520         267.223         282.314
   16          13.383          14.607          31.783         122.308         139.122         149.793         156.499         186.609         229.760         246.396         267.046         282.231
   17          14.279          15.579          33.889         122.587         139.201         149.866         156.204         186.570         229.926         246.263         266.858         282.142
   18          15.176          16.550          35.993         122.868         139.297         149.943         155.893         186.529         230.102         246.120         266.658         282.047
   19          16.074          17.521          38.095         123.148         139.412         150.025         155.564         186.485         230.287         245.969         266.445         281.947
   20          16.973          18.491          40.194         123.425         139.549         150.111         155.218         186.439         230.481         245.808         266.221         281.841
   21          17.873          19.460          42.290         123.695         139.710         150.202         154.856         186.391         230.683         245.638         265.985         281.730
   22          18.774          20.429          44.383         123.955         139.897         150.297         154.477         186.341         230.894         245.459         265.737         281.613
   23          19.676          21.397          46.473         124.201         140.114         150.397         154.082         186.289         231.113         245.270         265.477         281.490
   24          20.579          22.365          48.559         124.430         140.363         150.501         153.671         186.235         231.341         245.072         265.206         281.362
   25          21.483          23.332          50.643         124.640         140.647         150.609         153.245         186.179         231.576         244.863         264.923         281.229
   26          22.388          24.298          52.722         124.826         140.967         150.722         152.803         186.121         231.818         244.646         264.628         281.090
   27          23.295          25.264          54.797         124.987         141.324         150.839         152.347         186.061         232.067         244.418         264.322         280.946
   28          24.202          26.228          56.869         125.121         141.721         150.961         151.876         185.999         232.324         244.180         264.004         280.797
   29          25.111          27.192          58.936         125.227         142.157         151.086         151.391         185.936         232.587         243.932         263.674         280.642
   30          26.021          28.155          60.999         125.303         142.633         150.891         151.216         185.872         232.857         243.673         263.334         280.483
   31          26.932          29.117          63.058         125.350         143.148         150.378         151.350         185.806         233.134         243.404         262.982         280.318
   32          27.845          30.078          65.112         125.366         143.701         149.852         151.488         185.738         233.416         243.125         262.618         280.147
   33          28.759          31.038          67.161         125.353         144.292         149.312         151.630         185.670         233.704         242.835         262.244         279.972
   34          29.674          31.997          69.205         125.311         144.919         148.759         151.776         185.601         233.998         242.534         261.858         279.792
   35          30.591          32.955          71.244         125.241         145.579         148.194         151.925         185.531         234.297         242.221         261.462         279.606
   36          31.509          33.912          73.277         125.144         146.271         147.616         152.079         185.461         234.602         241.898         261.055         279.416
   37          32.429          34.868          75.305         125.022         146.993         147.027         152.237         185.391         234.911         241.563         260.636         279.221
   38          33.350          35.823          77.327         124.875         146.425         147.742         152.398         185.320         235.225         241.216         260.207         279.021
   39          34.272          36.776          79.343         124.705         145.812         148.517         152.563         185.250         235.544         240.858         259.768         278.816
   40          35.196          37.728          81.353         124.513         145.188         149.315         152.732         185.180         235.867         240.488         259.318         278.606
   41          36.122          38.679          83.356         124.300         144.552         150.134         152.905         185.112         236.195         240.105         258.858         278.391
   42          37.049          39.628          85.353         124.068         143.906         150.972         153.081         185.045         236.526         239.711         258.387         278.172
   43          37.977          40.576          87.343         123.817         143.249         151.827         153.260         184.980         236.862         239.303         257.906         277.948
   44          38.907          41.523          89.327         123.548         142.582         152.696         153.443         184.917         237.201         238.883         257.416         277.720
   45          39.839          42.468          91.302         123.263         141.905         153.579         153.629         184.857         237.544         238.450         256.915         277.487
   46          40.772          43.412          93.271         122.962         141.218         153.819         154.471         184.801         237.890         238.004         256.405         277.250
   47          41.706          44.353          95.231         122.646         140.522         154.012         155.373         184.749         237.545         238.239         255.885         277.008
   48          42.643          45.294          97.184         122.315         139.816         154.207         156.281         184.702         237.072         238.591         255.356         276.762
   49          43.580          46.232          99.128         121.971         139.101         154.406         157.194         184.662         236.585         238.947         254.817         276.511
   50          44.519          47.169         101.063         121.615         138.377         154.608         158.108         184.629         236.085         239.305         254.269         276.257
   51          45.460          48.104         102.989         121.246         137.644         154.813         159.023         184.605         235.570         239.666         253.712         275.998
   52          46.402          49.037         104.905         120.867         136.903         155.021         159.936         184.591         235.040         240.029         253.146         275.735
   53          47.346          49.968         106.809         120.478         136.154         155.232         160.844         184.588         234.497         240.395         252.571         275.468
   54          48.291          50.897         108.701         120.081         135.396         155.445         161.744         184.599         233.938         240.763         251.988         275.197
   55          49.238          51.825         110.577         119.680         134.631         155.661         162.634         184.626         233.364         241.133         251.396         274.922
   56          50.186          52.750         112.429         119.281         133.858         155.879         163.510         184.671         232.776         241.506         250.796         274.643
   57          51.135          53.673         114.239         118.906         133.077         156.100         164.370         184.736         232.171         241.880         250.188         274.360
   58          52.086          54.594         115.921         118.636         132.289         156.323         165.209         184.826         231.552         242.256         249.572         274.074
   59          53.038          55.512         117.008         118.942         131.494         156.548         166.025         184.942         230.916         242.634         248.948         273.784
   60          53.992          56.429         117.013         120.309         130.692         156.776         166.812         185.089         230.265         243.014         248.316         273.490
   61          54.947          57.342         116.657         122.017         129.883         157.005         167.567         185.271         229.598         243.395         247.676         273.193
   62          55.903          58.254         116.217         123.788         129.067         157.237         168.285         185.490         228.914         243.778         247.029         272.892
   63          56.861          59.163         115.743         125.572         128.245         157.470         168.963         185.751         228.214         244.162         246.374         272.588
   64          57.819          60.069         115.250         127.354         127.417         157.705         169.597         186.057         227.498         244.548         245.712         272.280
   65          58.779          60.973         114.742         126.582         129.129         157.942         170.184         186.411         226.765         244.934         245.043         271.969
   66          59.740          61.875         114.222         125.742         130.895         158.180         170.722         186.816         226.015         244.367         245.322         271.655
   67          60.703          62.773         113.692         124.896         132.649         158.419         171.209         187.271         225.249         243.684         245.711         271.338
   68          61.666          63.669         113.152         124.044         134.390         158.660         171.645         187.778         224.465         242.994         246.101         271.017
   69          62.630          64.562         112.602         123.187         136.118         158.902         172.032         188.335         223.665         242.296         246.492         270.694
   70          63.596          65.452         112.044         122.324         137.831         159.145         172.371         188.941         222.848         241.592         246.884         270.367
   71          64.562          66.339         111.478         121.456         139.528         159.389         172.666         189.593         222.014         240.882         247.276         270.038
   72          65.529          67.223         110.903         120.584         141.208         159.634         172.920         190.287         221.162         240.164         247.669         269.705
   73          66.497          68.104         110.320         119.706         142.869         159.879         173.139         191.019         220.294         239.440         248.063         269.370
   74          67.466          68.981         109.729         118.823         144.511         160.125         173.326         191.787         219.409         238.710         248.458         269.033
   75          68.435          69.856         109.130         117.936         146.131         160.371         173.487         192.585         218.507         237.972         248.853         268.692
   76          69.406          70.727         108.524         117.045         147.727         160.617         173.628         193.410         217.588         237.228         249.248         268.349
   77          70.377          71.595         107.911         116.149         149.298         160.863         173.754         194.258         216.652         236.478         249.644         268.004
   78          71.348          72.459         107.290         115.249         150.839         161.109         173.871         195.127         215.699         235.721         250.040         267.656
   79          72.320          73.320         106.662         114.345         152.348         161.355         173.985         196.012         214.730         234.957         250.437         267.305
   80          73.292          74.178         106.027         113.437         153.820         161.600         174.103         196.912         213.744         234.187         250.833         266.952
   81          74.265          75.031         105.385         112.525         155.248         161.844         174.233         197.824         212.742         233.410         251.230         266.597
   82          75.238          75.881         104.737         111.609         156.628         162.087         174.384         198.746         211.724         232.627         251.627         266.240
   83          76.211          76.728         104.081         110.690         157.949         162.329         174.564         199.675         210.690         231.837         252.024         265.881
   84          77.185          77.570         103.419         109.768         159.202         162.569         174.787         200.611         209.640         231.041         252.421         265.519
   85          78.158          78.409         102.751         108.842         160.376         162.808         175.063         201.552         208.575         230.238         252.818         265.156
   86          79.132          79.243         102.076         107.914         161.457         163.044         175.408         202.496         207.494         229.428         253.215         264.791
   87          80.074          80.105         101.394         106.982         162.434         163.278         175.834         203.442         206.398         228.612         253.612         264.423
   88          80.900          81.078         100.707         106.047         163.295         163.509         176.354         204.390         205.288         227.790         254.008         264.054
   89          81.723          82.052         100.013         105.109         163.737         164.033         176.974         204.163         205.338         226.961         254.404         263.683
   90          82.541          83.024          99.313         104.169         163.961         164.647         177.698         203.025         206.285         226.125         254.800         263.311
   91          83.354          83.997          98.607         103.226         164.181         165.140         178.522         201.874         207.231         225.283         255.196         262.936
   92          84.163          84.969          97.896         102.281         164.396         165.523         179.436         200.709         208.176         224.434         255.590         262.560
   93          84.968          85.940          97.178         101.333         164.606         165.807         180.429         199.533         209.118         223.579         255.985         262.183
   94          85.769          86.911          96.455         100.383         164.810         166.007         181.487         198.345         210.057         222.718         256.379         261.804
   95          86.564          87.881          95.726          99.431         165.006         166.136         182.596         197.146         210.993         221.850         256.772         261.424
   96          87.355          88.850          94.991          98.478         165.195         166.205         183.746         195.938         211.925         220.977         257.165         261.042
   97          88.141          89.819          94.251          97.522         165.374         166.225         184.926         194.722         212.853         220.097         257.557         260.659
   98          88.923          90.786          93.506          96.564         165.542         166.205         186.127         193.498         213.777         219.211         257.948         260.275
   99          89.699          91.752          92.755          95.605         165.698         166.152         187.344         192.269         214.696         218.319         258.338         259.890
  100          90.471          91.999          92.718          94.644         165.840         166.070         188.571         191.037         215.609         217.421         258.728         259.504
  101          91.237          91.237          93.681          93.681         165.965         165.965         189.803         189.803         216.518         216.518         259.116         259.116
  102          91.241          91.241          93.689          93.689         165.964         165.964         189.810         189.810         216.505         216.505         259.121         259.121
  103          91.252          91.252          93.713          93.713         165.960         165.960         189.830         189.830         216.467         216.467         259.138         259.138
  104          91.271          91.271          93.753          93.753         165.953         165.953         189.863         189.863         216.402         216.402         259.164         259.164
  105          91.298          91.298          93.809          93.809         165.944         165.944         189.910         189.910         216.313         216.313         259.201         259.201
  106          91.332          91.332          93.881          93.881         165.932         165.932         189.970         189.970         216.198         216.198         259.249         259.249
  107          91.374          91.374          93.968          93.968         165.916         165.916         190.044         190.044         216.058         216.058         259.306         259.306
  108          91.424          91.424          94.070          94.070         165.898         165.898         190.132         190.132         215.894         215.894         259.373         259.373
  109          91.483          91.483          94.187          94.187         165.876         165.876         190.233         190.233         215.705         215.705         259.449         259.449
  110          91.550          91.550          94.318          94.318         165.851         165.851         190.349         190.349         215.493         215.493         259.534         259.534
  111          91.625          91.625          94.464          94.464         165.821         165.821         190.479         190.479         215.257         215.257         259.628         259.628
  112          91.709          91.709          94.624          94.624         165.788         165.788         190.623         190.623         214.998         214.998         259.729         259.729
  113          91.803          91.803          94.797          94.797         165.750         165.750         190.782         190.782         214.717         214.717         259.838         259.838
  114          91.905          91.905          94.984          94.984         165.707         165.707         190.955         190.955         214.414         214.414         259.954         259.954
  115          92.016          92.016          95.183          95.183         165.659         165.659         191.144         191.144         214.090         214.090         260.076         260.076
  116          92.137          92.137          95.396          95.396         165.606         165.606         191.348         191.348         213.745         213.745         260.204         260.204
  117          92.267          92.267          95.621          95.621         165.547         165.547         191.567         191.567         213.380         213.380         260.337         260.337
  118          92.406          92.406          95.858          95.858         165.482         165.482         191.802         191.802         212.995         212.995         260.474         260.474
  119          92.555          92.555          96.106          96.106         165.411         165.411         192.052         192.052         212.592         212.592         260.616         260.616
  120          92.713          92.713          96.367          96.367         165.333         165.333         192.319         192.319         212.170         212.170         260.761         260.761
  121          92.880          92.880          96.639          96.639         165.248         165.248         192.601         192.601         211.731         211.731         260.908         260.908
  122          93.057          93.057          96.922          96.922         165.157         165.157         192.899         192.899         211.275         211.275         261.058         261.058
  123          93.243          93.243          97.215          97.215         165.057         165.057         193.214         193.214         210.802         210.802         261.209         261.209
  124          93.439          93.439          97.520          97.520         164.951         164.951         193.544         193.544         210.314         210.314         261.362         261.362
  125          93.644          93.644          97.834          97.834         164.836         164.836         193.891         193.891         209.810         209.810         261.514         261.514
  126          93.857          93.857          98.159          98.159         164.713         164.713         194.254         194.254         209.292         209.292         261.667         261.667
  127          94.080          94.080          98.494          98.494         164.582         164.582         194.633         194.633         208.759         208.759         261.819         261.819
  128          94.312          94.312          98.839          98.839         164.443         164.443         195.028         195.028         208.213         208.213         261.970         261.970
  129          94.553          94.553          99.193          99.193         164.295         164.295         195.439         195.439         207.655         207.655         262.119         262.119
  130          94.802          94.802          99.557          99.557         164.139         164.139         195.865         195.865         207.083         207.083         262.266         262.266
  131          95.061          95.061          99.929          99.929         163.974         163.974         196.307         196.307         206.500         206.500         262.410         262.410
  132          95.327          95.327         100.311         100.311         163.800         163.800         196.764         196.764         205.906         205.906         262.551         262.551
  133          95.602          95.602         100.701         100.701         163.618         163.618         197.236         197.236         205.301         205.301         262.689         262.689
  134          95.886          95.886         101.100         101.100         163.427         163.427         197.723         197.723         204.687         204.687         262.822         262.822
  135          96.177          96.177         101.508         101.508         163.227         163.227         198.222         198.222         204.064         204.064         262.951         262.951
  136          96.477          96.477         101.923         101.923         163.018         163.018         198.734         198.734         203.433         203.433         263.075         263.075
  137          96.784          96.784         102.347         102.347         162.801         162.801         199.255         199.255         202.798         202.798         263.194         263.194
  138          97.099          97.099         102.778         102.778         162.575         162.575         199.777         199.777         202.167         202.167         263.308         263.308
  139          97.421          97.421         103.217         103.217         162.341         162.341         200.264         200.264         201.576         201.576         263.415         263.415
  140          97.751          97.751         103.663         103.663         162.099         162.099         200.438         200.438         201.304         201.304         263.517         263.517
  141          98.089          98.089         104.117         104.117         161.848         161.848         199.964         199.964         201.683         201.683         263.611         263.611
  142          98.433          98.433         104.578         104.578         161.589         161.589         199.322         199.322         202.236         202.236         263.699         263.699
  143          98.784          98.784         105.046         105.046         161.322         161.322         198.645         198.645         202.830         202.830         263.780         263.780
  144          99.142          99.142         105.521         105.521         161.047         161.047         197.952         197.952         203.444         203.444         263.853         263.853
  145          99.507          99.507         106.002         106.002         160.764         160.764         197.249         197.249         204.073         204.073         263.918         263.918
  146          99.878          99.878         106.490         106.490         160.474         160.474         196.537         196.537         204.715         204.715         263.976         263.976
  147         100.256         100.256         106.984         106.984         160.176         160.176         195.818         195.818         205.369         205.369         264.025         264.025
  148         100.640         100.640         107.484         107.484         159.872         159.872         195.093         195.093         206.033         206.033         264.066         264.066
  149         101.029         101.029         107.990         107.990         159.560         159.560         194.362         194.362         206.708         206.708         264.097         264.097
  150         101.425         101.425         108.502         108.502         159.241         159.241         193.625         193.625         207.393         207.393         264.120         264.120
  151         101.827         101.827         109.019         109.019         158.916         158.916         192.883         192.883         208.086         208.086         264.134         264.134
  152         102.234         102.234         109.542         109.542         158.585         158.585         192.137         192.137         208.788         208.788         264.139         264.139
  153         102.646         102.646         110.071         110.071         158.247         158.247         191.385         191.385         209.499         209.499         264.134         264.134
  154         103.064         103.064         110.604         110.604         157.903         157.903         190.630         190.630         210.216         210.216         264.119         264.119
  155         103.487         103.487         111.142         111.142         157.554         157.554         189.870         189.870         210.941         210.941         264.094         264.094
  156         103.914         103.914         111.685         111.685         157.199         157.199         189.107         189.107         211.673         211.673         264.060         264.060
  157         104.347         104.347         112.232         112.232         156.840         156.840         188.340         188.340         212.411         212.411         264.015         264.015
  158         104.784         104.784         112.784         112.784         156.475         156.475         187.570         187.570         213.154         213.154         263.960         263.960
  159         105.226         105.226         113.339         113.339         156.106         156.106         186.797         186.797         213.903         213.903         263.894         263.894
  160         105.673         105.673         113.899         113.899         155.732         155.732         186.020         186.020         214.657         214.657         263.818         263.818
  161         106.123         106.123         114.462         114.462         155.355         155.355         185.242         185.242         215.415         215.415         263.732         263.732
  162         106.578         106.578         115.028         115.028         154.974         154.974         184.460         184.460         216.177         216.177         263.634         263.634
  163         107.036         107.036         115.597         115.597         154.589         154.589         183.677         183.677         216.943         216.943         263.525         263.525
  164         107.499         107.499         116.169         116.169         154.202         154.202         182.891         182.891         217.712         217.712         263.406         263.406
  165         107.965         107.965         116.743         116.743         153.812         153.812         182.104         182.104         218.484         218.484         263.275         263.275
  166         108.434         108.434         117.319         117.319         153.420         153.420         181.315         181.315         219.258         219.258         263.134         263.134
  167         108.907         108.907         117.896         117.896         153.027         153.027         180.524         180.524         220.034         220.034         262.981         262.981
  168         109.384         109.384         118.475         118.475         152.632         152.632         179.733         179.733         220.811         220.811         262.816         262.816
  169         109.863         109.863         119.055         119.055         152.237         152.237         178.940         178.940         221.590         221.590         262.641         262.641
  170         110.345         110.345         119.634         119.634         151.842         151.842         178.146         178.146         222.369         222.369         262.453         262.453
  171         110.830         110.830         120.213         120.213         151.447         151.447         177.352         177.352         223.149         223.149         262.255         262.255
  172         111.317         111.317         120.792         120.792         151.054         151.054         176.557         176.557         223.928         223.928         262.045         262.045
  173         111.807         111.807         121.368         121.368         150.663         150.663         175.761         175.761         224.707         224.707         261.823         261.823
  174         112.299         112.299         121.941         121.941         150.275         150.275         174.966         174.966         225.486         225.486         261.589         261.589
  175         112.793         112.793         122.511         122.511         149.892         149.892         174.171         174.171         226.263         226.263         261.344         261.344
  176         113.289         113.289         123.077         123.077         149.513         149.513         173.376         173.376         227.039         227.039         261.088         261.088
  177         113.787         113.787         123.636         123.636         149.142         149.142         172.581         172.581         227.813         227.813         260.819         260.819
  178         114.286         114.286         124.188         124.188         148.777         148.777         171.788         171.788         228.585         228.585         260.539         260.539
  179         114.786         114.786         124.732         124.732         148.423         148.423         170.995         170.995         229.354         229.354         260.248         260.248
  180         115.288         115.288         125.265         125.265         148.080         148.080         170.203         170.203         230.121         230.121         259.945         259.945
  181         115.791         115.791         125.785         125.785         147.750         147.750         169.412         169.412         230.884         230.884         259.630         259.630
  182         116.294         116.294         126.291         126.291         147.436         147.436         168.623         168.623         231.643         231.643         259.303         259.303
  183         116.798         116.798         126.780         126.780         147.140         147.140         167.836         167.836         232.399         232.399         258.965         258.965
  184         117.302         117.302         127.248         127.248         146.865         146.865         167.051         167.051         233.151         233.151         258.615         258.615
  185         117.807         117.807         127.693         127.693         146.615         146.615         166.268         166.268         233.899         233.899         258.253         258.253
  186         118.310         118.310         128.112         128.112         146.393         146.393         165.488         165.488         234.641         234.641         257.880         257.880
  187         118.814         118.814         128.499         128.499         146.202         146.202         164.710         164.710         235.379         235.379         257.496         257.496
  188         119.316         119.316         128.853         128.853         146.047         146.047         163.936         163.936         236.111         236.111         257.100         257.100
  189         119.818         119.818         129.169         129.169         145.932         145.932         163.165         163.165         236.838         236.838         256.693         256.693
  190         120.318         120.318         129.442         129.442         145.860         145.860         162.398         162.398         237.559         237.559         256.274         256.274
  191         120.816         120.816         129.670         129.670         145.834         145.834         161.635         161.635         238.274         238.274         255.844         255.844
  192         121.311         121.311         129.850         129.850         145.859         145.859         160.877         160.877         238.982         238.982         255.403         255.403
  193         121.805         121.805         129.979         129.979         145.935         145.935         160.124         160.124         239.684         239.684         254.951         254.951
  194         122.294         122.294         130.057         130.057         146.065         146.065         159.376         159.376         240.380         240.380         254.488         254.488
  195         122.780         122.780         130.083         130.083         146.248         146.248         158.634         158.634         241.068         241.068         254.014         254.014
  196         123.262         123.262         130.059         130.059         146.483         146.483         157.899         157.899         241.748         241.748         253.529         253.529
  197         123.739         123.739         129.986         129.986         146.768         146.768         157.171         157.171         242.422         242.422         253.033         253.033
  198         124.210         124.210         129.866         129.866         147.102         147.102         156.451         156.451         243.087         243.087         252.527         252.527
  199         124.675         124.675         129.704         129.704         147.480         147.480         155.740         155.740         243.745         243.745         252.010         252.010
  200         125.132         125.132         129.502         129.502         147.900         147.900         155.038         155.038         244.394         244.394         251.483         251.483
  201         125.581         125.581         129.264         129.264         148.358         148.358         154.347         154.347         245.035         245.035         250.945         250.945
  202         126.020         126.020         128.994         128.994         148.849         148.849         153.668         153.668         245.667         245.667         250.398         250.398
  203         126.448         126.448         128.694         128.694         149.372         149.372         153.002         153.002         246.291         246.291         249.840         249.840
  204         126.864         126.864         128.369         128.369         149.923         149.923         152.350         152.350         246.906         246.906         249.272         249.272
  205         127.266         127.266         128.021         128.021         150.499         150.499         151.714         151.714         247.511         247.511         248.695         248.695
  206         127.653         127.653         127.653         127.653         151.096         151.096         151.096         151.096         248.108         248.108         248.108         248.108
  207         127.312         127.312         127.983         127.983         150.769         150.769         151.429         151.429         247.427         247.427         248.787         248.787
  208         126.961         126.961         128.301         128.301         150.446         150.446         151.765         151.765         246.744         246.744         249.465         249.465
  209         126.601         126.601         128.605         128.605         150.130         150.130         152.104         152.104         246.060         246.060         250.140         250.140
  210         126.233         126.233         128.895         128.895         149.821         149.821         152.447         152.447         245.375         245.375         250.812         250.812
  211         125.857         125.857         129.170         129.170         149.520         149.520         152.791         152.791         244.689         244.689         251.481         251.481
  212         125.474         125.474         129.427         129.427         149.229         149.229         153.138         153.138         244.003         244.003         252.146         252.146
  213         125.085         125.085         129.665         129.665         148.948         148.948         153.486         153.486         243.317         243.317         252.809         252.809
  214         124.691         124.691         129.883         129.883         148.680         148.680         153.835         153.835         242.632         242.632         253.467         253.467
  215         124.292         124.292         130.078         130.078         148.425         148.425         154.185         154.185         241.947         241.947         254.121         254.121
  216         123.888         123.888         130.248         130.248         148.185         148.185         154.535         154.535         241.264         241.264         254.771         254.771
  217         123.480         123.480         130.393         130.393         147.962         147.962         154.886         154.886         240.582         240.582         255.417         255.417
  218         123.068         123.068         130.509         130.509         147.758         147.758         155.238         155.238         239.902         239.902         256.057         256.057
  219         122.653         122.653         130.596         130.596         147.573         147.573         155.589         155.589         239.224         239.224         256.693         256.693
  220         122.235         122.235         130.650         130.650         147.410         147.410         155.940         155.940         238.548         238.548         257.323         257.323
  221         121.815         121.815         130.671         130.671         147.270         147.270         156.292         156.292         237.876         237.876         257.948         257.948
  222         121.392         121.392         130.657         130.657         147.153         147.153         156.642         156.642         237.206         237.206         258.567         258.567
  223         120.968         120.968         130.607         130.607         147.062         147.062         156.993         156.993         236.541         236.541         259.181         259.181
  224         120.542         120.542         130.520         130.520         146.996         146.996         157.342         157.342         235.879         235.879         259.788         259.788
  225         120.115         120.115         130.395         130.395         146.956         146.956         157.691         157.691         235.222         235.222         260.390         260.390
  226         119.687         119.687         130.232         130.232         146.942         146.942         158.040         158.040         234.569         234.569         260.985         260.985
  227         119.258         119.258         130.032         130.032         146.952         146.952         158.387         158.387         233.922         233.922         261.573         261.573
  228         118.829         118.829         129.795         129.795         146.988         146.988         158.734         158.734         233.280         233.280         262.155         262.155
  229         118.400         118.400         129.522         129.522         147.047         147.047         159.080         159.080         232.643         232.643         262.731         262.731
  230         117.970         117.970         129.214         129.214         147.128         147.128         159.424         159.424         232.013         232.013         263.299         263.299
  231         117.541         117.541         128.871         128.871         147.230         147.230         159.768         159.768         231.389         231.389         263.860         263.860
  232         117.112         117.112         128.496         128.496         147.351         147.351         160.111         160.111         230.772         230.772         264.414         264.414
  233         116.684         116.684         128.090         128.090         147.490         147.490         160.452         160.452         230.161         230.161         264.961         264.961
  234         116.257         116.257         127.653         127.653         147.645         147.645         160.792         160.792         229.558         229.558         265.501         265.501
  235         115.831         115.831         127.189         127.189         147.815         147.815         161.130         161.130         228.963         228.963         266.033         266.033
  236         115.406         115.406         126.697         126.697         147.998         147.998         161.467         161.467         228.376         228.376         266.558         266.558
  237         114.983         114.983         126.181         126.181         148.192         148.192         161.803         161.803         227.796         227.796         267.075         267.075
  238         114.561         114.561         125.639         125.639         148.397         148.397         162.137         162.137         227.225         227.225         267.584         267.584
  239         114.142         114.142         125.075         125.075         148.610         148.610         162.470         162.470         226.663         226.663         268.085         268.085
  240         113.724         113.724         124.489         124.489         148.832         148.832         162.800         162.800         226.109         226.109         268.579         268.579
  241         113.308         113.308         123.883         123.883         149.060         149.060         163.129         163.129         225.565         225.565         269.065         269.065
  242         112.895         112.895         123.257         123.257         149.293         149.293         163.456         163.456         225.030         225.030         269.542         269.542
  243         112.485         112.485         122.612         122.612         149.531         149.531         163.781         163.781         224.504         224.504         270.012         270.012
  244         112.077         112.077         121.950         121.950         149.773         149.773         164.104         164.104         223.988         223.988         270.474         270.474
  245         111.672         111.672         121.271         121.271         150.019         150.019         164.425         164.425         223.481         223.481         270.928         270.928
  246         111.270         111.270         120.576         120.576         150.266         150.266         164.744         164.744         222.985         222.985         271.373         271.373
  247         110.871         110.871         119.866         119.866         150.515         150.515         165.060         165.060         222.498         222.498         271.811         271.811
  248         110.476         110.476         119.141         119.141         150.766         150.766         165.374         165.374         222.022         222.022         272.240         272.240
  249         110.084         110.084         118.403         118.403         151.017         151.017         165.686         165.686         221.556         221.556         272.661         272.661
  250         109.696         109.696         117.652         117.652         151.268         151.268         165.995         165.995         221.100         221.100         273.074         273.074
  251         109.312         109.312         116.890         116.890         151.518         151.518         166.301         166.301         220.655         220.655         273.478         273.478
  252         108.932         108.932         116.116         116.116         151.768         151.768         166.605         166.605         220.220         220.220         273.875         273.875
  253         108.556         108.556         115.331         115.331         152.017         152.017         166.905         166.905         219.795         219.795         274.263         274.263
  254         108.184         108.184         114.537         114.537         152.265         152.265         167.203         167.203         219.381         219.381         274.643         274.643
  255         107.816         107.816         113.733         113.733         152.511         152.511         167.497         167.497         218.978         218.978         275.015         275.015
  256         107.453         107.453         112.922         112.922         152.755         152.755         167.789         167.789         218.585         218.585         275.379         275.379
  257         107.095         107.095         112.102         112.102         152.996         152.996         168.077         168.077         218.202         218.202         275.734         275.734
  258         106.742         106.742         111.276         111.276         153.235         153.235         168.362         168.362         217.830         217.830         276.082         276.082
  259         106.394         106.394         110.444         110.444         153.471         153.471         168.643         168.643         217.468         217.468         276.421         276.421
  260         106.050         106.050         109.607         109.607         153.704         153.704         168.920         168.920         217.116         217.116         276.752         276.752
  261         105.712         105.712         108.765         108.765         153.935         153.935         169.194         169.194         216.775         216.775         277.075         277.075
  262         105.380         105.380         107.920         107.920         154.161         154.161         169.464         169.464         216.444         216.444         277.390         277.390
  263         105.053         105.053         107.072         107.072         154.385         154.385         169.730         169.730         216.123         216.123         277.697         277.697
  264         104.731         104.731         106.222         106.222         154.604         154.604         169.992         169.992         215.811         215.811         277.996         277.996
  265         104.415         104.415         105.371         105.371         154.820         154.820         170.249         170.249         215.510         215.510         278.287         278.287
  266         104.105         104.105         104.520         104.520         155.032         155.032         170.503         170.503         215.219         215.219         278.571         278.571
  267         103.670         103.670         103.802         103.802         155.240         155.240         170.752         170.752         214.937         214.937         278.846         278.846
  268         102.821         102.821         103.504         103.504         155.444         155.444         170.996         170.996         214.664         214.664         279.114         279.114
  269         101.975         101.975         103.212         103.212         155.643         155.643         171.236         171.236         214.401         214.401         279.373         279.373
  270         101.133         101.133         102.927         102.927         155.838         155.838         171.471         171.471         214.148         214.148         279.625         279.625
  271         100.296         100.296         102.648         102.648         156.029         156.029         171.701         171.701         213.903         213.903         279.870         279.870
  272          99.465          99.465         102.376         102.376         156.215         156.215         171.926         171.926         213.667         213.667         280.107         280.107
  273          98.640          98.640         102.110         102.110         156.396         156.396         172.146         172.146         213.441         213.441         280.336         280.336
  274          97.823          97.823         101.852         101.852         156.573         156.573         172.360         172.360         213.223         213.223         280.557         280.557
  275          97.015          97.015         101.600         101.600         156.745         156.745         172.570         172.570         213.013         213.013         280.772         280.772
  276          96.217          96.217         101.355         101.355         156.912         156.912         172.774         172.774         212.812         212.812         280.978         280.978
  277          95.430          95.430         101.117         101.117         157.074         157.074         172.972         172.972         212.619         212.619         281.178         281.178
  278          94.655          94.655         100.886         100.886         157.231         157.231         173.165         173.165         212.435         212.435         281.370         281.370
  279          93.894          93.894         100.663         100.663         157.383         157.383         173.352         173.352         212.258         212.258         281.554         281.554
  280          93.147          93.147         100.446         100.446         157.530         157.530         173.533         173.533         212.089         212.089         281.732         281.732
  281          92.416          92.416         100.238         100.238         157.672         157.672         173.708         173.708         211.928         211.928         281.902         281.902
  282          91.701          91.701         100.036         100.036         157.808         157.808         173.877         173.877         211.774         211.774         282.065         282.065
  283          91.004          91.004          99.843          99.843         157.940         157.940         174.041         174.041         211.628         211.628         282.221         282.221
  284          90.327          90.327          99.657          99.657         158.066         158.066         174.197         174.197         211.489         211.489         282.371         282.371
  285          89.669          89.669          99.478          99.478         158.186         158.186         174.348         174.348         211.358         211.358         282.513         282.513
  286          89.033          89.033          99.308          99.308         158.301         158.301         174.492         174.492         211.233         211.233         282.648         282.648
  287          88.420          88.420          99.145          99.145         158.411         158.411         174.630         174.630         211.115         211.115         282.776         282.776
  288          87.830          87.830          98.991          98.991         158.516         158.516         174.761         174.761         211.004         211.004         282.897         282.897
  289          87.264          87.264          98.844          98.844         158.615         158.615         174.885         174.885         210.900         210.900         283.012         283.012
  290          86.725          86.725          98.705          98.705         158.708         158.708         175.003         175.003         210.802         210.802         283.120         283.120
  291          86.212          86.212          98.575          98.575         158.796         158.796         175.114         175.114         210.711         210.711         283.221         283.221
  292          85.727          85.727          98.453          98.453         158.878         158.878         175.218         175.218         210.626         210.626         283.315         283.315
  293          85.271          85.271          98.339          98.339         158.955         158.955         175.315         175.315         210.547         210.547         283.403         283.403
  294          84.844          84.844          98.233          98.233         159.026         159.026         175.405         175.405         210.474         210.474         283.484         283.484
  295          84.448          84.448          98.135          98.135         159.092         159.092         175.489         175.489         210.408         210.408         283.558         283.558
  296          84.084          84.084          98.046          98.046         159.152         159.152         175.565         175.565         210.348         210.348         283.626         283.626
  297          83.751          83.751          97.965          97.965         159.206         159.206         175.634         175.634         210.293         210.293         283.688         283.688
  298          83.452          83.452          97.893          97.893         159.255         159.255         175.696         175.696         210.245         210.245         283.742         283.742
  299          83.186          83.186          97.829          97.829         159.298         159.298         175.750         175.750         210.202         210.202         283.791         283.791
  300          82.955          82.955          97.773          97.773         159.335         159.335         175.798         175.798         210.165         210.165         283.832         283.832
  301          82.758          82.758          97.726          97.726         159.366         159.366         175.838         175.838         210.134         210.134         283.868         283.868
  302          82.596          82.596          97.688          97.688         159.392         159.392         175.871         175.871         210.109         210.109         283.897         283.897
  303          82.470          82.470          97.658          97.658         159.412         159.412         175.897         175.897         210.089         210.089         283.919         283.919
  304          82.380          82.380          97.637          97.637         159.426         159.426         175.915         175.915         210.075         210.075         283.935         283.935
  305          82.325          82.325          97.624          97.624         159.435         159.435         175.926         175.926         210.066         210.066         283.945         283.945
  306          82.307          82.307          97.620          97.620         159.438         159.438         175.930         175.930         210.064         210.064         283.948         283.948
  307          81.716          82.893          96.818          98.416         159.102         159.772         175.366         176.499         208.684         211.433         283.814         284.073
  308          81.119          83.473          96.013          99.208         158.765         160.104         174.810         177.075         207.295         212.793         283.670         284.188
  309          80.517          84.047          95.202          99.995         158.428         160.434         174.260         177.657         205.896         214.142         283.517         284.294
  310          79.910          84.615          94.387         100.776         158.089         160.760         173.717         178.244         204.490         215.480         283.355         284.390
  311          79.297          85.177          93.568         101.553         157.750         161.083         173.182         178.837         203.075         216.807         283.183         284.477
  312          78.678          85.733          92.744         102.325         157.412         161.402         172.654         179.435         201.653         218.122         283.002         284.555
  313          78.055          86.283          91.916         103.092         157.073         161.716         172.134         180.039         200.225         219.426         282.811         284.624
  314          77.426          86.827          91.084         103.853         156.735         162.023         171.621         180.646         198.791         220.718         282.611         284.683
  315          76.792          87.364          90.248         104.610         156.398         162.324         171.117         181.259         197.354         221.998         282.401         284.733
  316          76.153          87.895          89.407         105.360         156.061         162.616         170.622         181.875         195.913         223.266         282.182         284.774
  317          75.509          88.419          88.563         106.106         155.725         162.898         170.135         182.496         194.471         224.522         281.954         284.805
  318          74.861          87.714          88.937         106.846         155.390         163.169         169.657         183.121         193.029         225.766         281.717         284.828
  319          74.207          86.862          89.448         107.581         155.057         163.424         169.187         183.749         191.591         226.996         281.471         284.841
  320          73.548          86.006          89.951         108.310         154.725         163.663         168.728         184.380         190.159         228.215         281.215         284.846
  321          72.885          85.147          90.448         109.033         154.395         163.881         168.277         185.015         188.737         229.420         280.950         284.842
  322          72.217          84.284          90.937         109.751         154.067         164.074         167.836         185.653         187.329         230.613         280.677         284.829
  323          71.544          83.417          91.419         110.463         153.740         164.235         167.405         185.942         186.293         231.793         280.394         284.807
  324          70.867          82.547          91.893         111.169         153.416         164.358         166.983         184.583         186.935         232.959         280.103         284.776
  325          70.185          81.673          92.359         111.870         153.093         164.433         166.572         183.261         187.580         234.113         279.803         284.737
  326          69.498          80.796          92.817         112.564         152.773         164.449         166.171         181.989         188.227         235.253         279.494         284.690
  327          68.807          79.916          93.267         113.253         152.455         164.391         165.780         180.781         188.876         236.381         279.176         284.634
  328          68.112          79.032          93.708         113.936         152.140         164.241         165.400         179.653         189.526         237.495         278.850         284.570
  329          67.412          78.146          94.140         114.613         151.827         163.983         165.030         178.626         190.178         238.595         278.516         284.498
  330          66.708          77.256          94.562         115.284         151.517         163.597         164.671         177.717         190.830         239.683         278.174         284.417
  331          65.999          76.363          94.975         115.949         151.210         163.067         164.323         176.943         191.484         240.756         277.823         284.329
  332          65.287          75.468          95.378         116.609         150.905         162.386         163.985         176.312         192.139         241.817         277.465         284.233
  333          64.570          74.570          95.770         117.262         150.603         161.554         163.659         175.823         192.794         242.864         277.098         284.129
  334          63.849          73.668          96.151         117.909         150.305         160.582         163.344         175.468         193.449         243.897         276.724         284.017
  335          63.124          72.765          96.520         118.550         150.009         159.484         163.039         175.231         194.104         244.917         276.342         283.898
  336          62.395          71.858          96.878         119.185         149.717         158.279         162.746         175.095         194.759         245.923         275.953         283.771
  337          61.662          70.949          97.222         119.815         149.428         156.987         162.464         175.041         195.415         246.916         275.557         283.638
  338          60.925          70.038          97.552         120.438         149.142         155.624         162.193         175.053         196.069         247.895         275.153         283.497
  339          60.184          69.124          97.868         121.055         148.860         154.204         161.933         175.118         196.723         248.860         274.743         283.349
  340          59.439          68.207          98.168         121.666         148.581         152.739         161.685         175.225         197.376         249.812         274.325         283.194
  341          58.690          67.289          98.450         122.272         148.305         151.239         161.447         175.365         198.028         250.750         273.902         283.033
  342          57.938          66.368          98.715         122.871         148.033         149.713         161.220         175.531         198.678         251.674         273.472         282.865
  343          57.182          65.444          98.960         123.465         147.765         148.167         161.005         175.718         199.328         252.584         273.035         282.690
  344          56.422          64.519          99.183         124.053         146.607         147.500         160.800         175.922         199.975         253.481         272.593         282.510
  345          55.659          63.592          99.382         124.635         145.039         147.239         160.605         176.139         200.621         254.364         272.145         282.323
  346          54.893          62.662          99.555         125.211         143.469         146.982         160.422         176.367         201.265         255.234         271.692         282.130
  347          54.122          61.731          99.700         125.782         141.900         146.728         160.249         176.602         201.906         256.089         271.233         281.932
  348          53.349          60.798          99.812         126.347         140.338         146.479         160.086         176.844         202.546         256.931         270.770         281.728
  349          52.572          59.863          99.890         126.907         138.788         146.233         159.933         177.092         203.182         257.759         270.301         281.518
  350          51.791          58.926          99.928         127.461         137.255         145.991         159.791         177.342         203.816         258.574         269.828         281.304
  351          51.007          57.987          99.922         128.010         135.745         145.753         159.658         177.596         204.447         259.374         269.351         281.084
  352          50.221          57.047          99.866         128.553         134.265         145.519         159.534         177.851         205.075         260.161         268.870         280.859
  353          49.430          56.105          99.755         129.092         132.820         145.289         159.420         178.107         205.700         260.934         268.385         280.630
  354          48.637          55.161          99.583         129.625         131.418         145.063         159.315         178.364         206.321         261.694         267.897         280.396
  355          47.841          54.216          99.341         130.066         130.153         144.841         159.219         178.621         206.938         262.440         267.406         280.158
  356          47.042          53.269          99.024         128.773         130.675         144.623         159.131         178.877         207.552         263.172         266.911         279.916
  357          46.239          52.321          98.623         127.546         131.193         144.409         159.052         179.132         208.162         263.890         266.415         279.670
  358          45.434          51.372          98.132         126.393         131.706         144.199         158.980         179.385         208.767         264.595         265.916         279.420
  359          44.626          50.421          97.544         125.321         132.214         143.994         158.916         179.637         209.368         265.286         265.415         279.166
  360          43.815          49.469          96.853         124.334         132.717         143.792         158.860         179.887         209.965         264.913         265.964         278.909
  361          43.001          48.516          96.057         123.438         133.216         143.594         158.810         180.135         210.557         264.410         266.628         278.650
  362          42.185          47.561          95.154         122.633         133.710         143.401         158.767         180.380         211.144         263.906         267.278         278.387
  363          41.366          46.606          94.145         121.920         134.199         143.212         158.730         180.622         211.726         263.401         267.915         278.122
  364          40.544          45.649          93.032         121.295         134.683         143.027         158.699         180.861         212.302         262.897         268.538         277.854
  365          39.720          44.691          91.820         120.754         135.163         142.846         158.674         181.097         212.873         262.393         269.148         277.585
  366          38.894          43.732          90.515         120.292         135.638         142.669         158.654         181.330         213.438         261.889         269.744         277.313
  367          38.065          42.773          89.125         119.901         136.109         142.496         158.638         181.560         213.997         261.387         270.326         277.040
  368          37.233          41.812          87.656         119.576         136.575         142.328         158.628         181.785         214.551         260.886         270.895         276.765
  369          36.399          40.850          86.116         119.308         137.036         142.163         158.621         182.007         215.097         260.387         271.451         276.490
  370          35.563          39.887          84.511         119.090         137.493         142.003         158.618         182.225         215.637         259.891         271.993         276.213
  371          34.725          38.924          82.849         118.917         137.945         141.847         158.618         182.439         216.171         259.397         272.522         275.936
  372          33.884          37.960          81.136         118.783         138.392         141.695         158.621         182.649         216.697         258.907         273.037         275.659
  373          33.042          36.995          79.377         118.681         138.835         141.547         158.627         182.855         217.216         258.421         273.539         275.381
  374          32.197          36.029          77.576         118.608         139.272         141.403         158.634         183.056         217.728         257.938         274.028         275.104
  375          31.351          35.062          75.739         118.560         139.705         141.263         158.644         183.253         218.232         257.460         274.503         274.828
  376          30.502          34.095          73.869         118.532         140.132         141.128         158.656         183.446         218.727         256.988         274.552         274.965
  377          29.652          33.127          71.970         118.522         140.554         140.996         158.668         183.634         219.215         256.521         274.278         275.413
  378          28.799          32.159          70.043         118.526         140.869         140.970         158.682         183.817         219.694         256.060         274.005         275.848
  379          27.945          31.190          68.093         118.543         140.745         141.381         158.696         183.996         220.164         255.605         273.735         276.270
  380          27.090          30.220          66.121         118.571         140.626         141.786         158.710         184.169         220.625         255.158         273.466         276.679
  381          26.232          29.250          64.129         118.607         140.510         142.184         158.724         184.338         221.076         254.718         273.200         277.075
  382          25.373          28.279          62.119         118.651         140.399         142.576         158.738         184.502         221.518         254.286         272.938         277.457
  383          24.512          27.308          60.092         118.700         140.291         142.962         158.751         184.661         221.950         253.863         272.678         277.826
  384          23.650          26.336          58.050         118.753         140.187         143.340         158.764         184.814         222.371         253.449         272.423         278.182
  385          22.787          25.364          55.995         118.810         140.088         143.711         158.775         184.963         222.781         253.044         272.171         278.525
  386          21.922          24.392          53.926         118.870         139.992         144.075         158.786         185.106         223.181         252.650         271.924         278.855
  387          21.055          23.419          51.846         118.932         139.900         144.430         158.795         185.244         223.569         252.266         271.682         279.172
  388          20.188          22.446          49.755         118.994         139.812         144.777         158.802         185.377         223.945         251.893         271.445         279.475
  389          19.319          21.472          47.654         119.058         139.728         145.116         158.808         185.505         224.310         251.531         271.214         279.766
  390          18.449          20.498          45.543         119.121         139.648         145.445         158.812         185.627         224.661         251.182         270.990         280.043
  391          17.578          19.524          43.424         119.183         139.572         145.764         158.815         185.744         225.000         250.845         270.772         280.308
  392          16.705          18.549          41.297         119.244         139.499         146.073         158.816         185.855         225.326         250.521         270.561         280.559
  393          15.832          17.575          39.163         119.305         139.430         146.372         158.814         185.961         225.638         250.211         270.357         280.798
  394          14.958          16.600          37.022         119.363         139.366         146.659         158.812         186.061         225.935         249.914         270.161         281.023
  395          14.083          15.624          34.874         119.419         139.305         146.934         158.807         186.156         226.219         249.632         269.974         281.236
  396          13.207          14.649          32.721         119.473         139.247         147.197         158.801         186.245         226.487         249.365         269.796         281.435
  397          12.330          13.673          30.562         119.525         139.194         147.448         158.794         186.328         226.741         249.112         269.626         281.622
  398          11.452          12.697          28.399         119.574         139.144         147.684         158.785         186.406         226.979         248.876         269.467         281.795
  399          10.574          11.721          26.231         119.619         139.098         147.907         158.775         186.478         227.201         248.655         269.317         281.956
  400           9.695          10.745          24.058         119.662         139.055         148.114         158.765         186.545         227.406         248.450         269.178         282.104
  401           8.816           9.769          21.883         119.702         139.017         148.307         158.754         186.606         227.595         248.262         269.049         282.239
  402           7.935           8.792          19.704         119.738         138.982         148.483         158.743         186.661         227.768         248.091         268.931         282.361
  403           7.055           7.815          17.522         119.770         138.951         148.643         158.732         186.710         227.922         247.938         268.825         282.470
  404           6.174           6.839          15.337         119.799         138.923         148.785         158.721         186.753         228.060         247.801         268.731         282.567
  405           5.293           5.862          13.150         119.824         138.899         148.910         158.711         186.791         228.179         247.683         268.649         282.650
  406           4.411           4.885          10.961         119.846         138.879         149.016         158.702         186.823         228.281         247.582         268.579         282.721
  407           3.529           3.908           8.771         119.863         138.863         149.104         158.694         186.849         228.364         247.499         268.521         282.779
  408           2.647           2.931           6.579         119.877         138.850         149.173         158.688         186.870         228.429         247.435         268.476         282.824
  409           1.765           1.954           4.387         119.887         138.841         149.222         158.683         186.884         228.476         247.389         268.444         282.856
  410           0.882           0.977           2.194         119.893         138.835         149.252         158.680         186.893         228.504         247.361         268.424         282.875
  411           0.000           0.000           0.000         119.895         138.833         149.262         158.679         186.896         228.513         247.352         268.418         282.881
  412           0.963           0.974           1.764         119.895         138.828         149.274         158.679         186.892         228.512         247.352         268.417         282.879
  413           1.927           1.948           3.529         119.896         138.811         149.312         158.677         186.882         228.510         247.353         268.414         282.873
  414           2.890           2.922           5.293         119.898         138.784         149.375         158.673         186.864         228.505         247.353         268.410         282.862
  415           3.854           3.896           7.056         119.900         138.746         149.462         158.668         186.840         228.499         247.354         268.405         282.847
  416           4.818           4.870           8.819         119.903         138.698         149.573         158.662         186.808         228.490         247.355         268.398         282.828
  417           5.782           5.844          10.581         119.907         138.642         149.706         158.654         186.770         228.480         247.357         268.389         282.805
  418           6.747           6.817          12.342         119.911         138.578         149.862         158.645         186.724         228.468         247.358         268.378         282.778
  419           7.712           7.791          14.102         119.916         138.506         150.038         158.634         186.672         228.455         247.360         268.366         282.746
  420           8.678           8.764          15.860         119.922         138.429         150.234         158.622         186.612         228.439         247.362         268.352         282.710
  421           9.645           9.738          17.618         119.929         138.346         150.449         158.609         186.546         228.422         247.365         268.337         282.670
  422          10.612          10.711          19.373         119.936         138.260         150.682         158.594         186.473         228.403         247.367         268.320         282.625
  423          11.579          11.684          21.127         119.944         138.170         150.932         158.578         186.393         228.382         247.370         268.301         282.576
  424          12.548          12.657          22.878         119.952         138.078         151.197         158.561         186.307         228.359         247.373         268.281         282.523
  425          13.517          13.630          24.628         119.962         137.985         151.476         158.542         186.214         228.335         247.376         268.258         282.466
  426          14.488          14.603          26.375         119.972         137.891         151.770         158.523         186.114         228.308         247.380         268.235         282.405
  427          15.459          15.575          28.120         119.984         137.797         152.076         158.501         186.008         228.280         247.384         268.209         282.339
  428          16.431          16.548          29.862         119.996         137.704         152.395         158.479         185.895         228.251         247.387         268.182         282.269
  429          17.404          17.520          31.601         120.009         137.613         152.724         158.455         185.776         228.219         247.391         268.153         282.195
  430          18.379          18.492          33.337         120.023         137.523         153.065         158.430         185.650         228.186         247.396         268.122         282.116
  431          19.354          19.463          35.071         120.037         137.436         153.415         158.404         185.518         228.151         247.400         268.089         282.033
  432          20.331          20.434          36.801         120.053         137.352         153.775         158.377         185.380         228.114         247.405         268.055         281.946
  433          21.308          21.405          38.527         120.070         137.271         154.144         158.348         185.236         228.076         247.409         268.018         281.854
  434          22.287          22.376          40.250         120.088         137.193         154.521         158.318         185.085         228.036         247.414         267.980         281.759
  435          23.267          23.347          41.970         120.107         137.120         154.905         158.288         184.929         227.994         247.419         267.940         281.659
  436          24.249          24.317          43.685         120.127         137.051         155.297         158.256         184.767         227.951         247.424         267.899         281.554
  437          25.231          25.287          45.397         120.148         136.986         155.696         158.223         184.599         227.906         247.429         267.855         281.446
  438          26.215          26.256          47.104         120.171         136.926         156.101         158.189         184.426         227.859         247.434         267.809         281.333
  439          27.201          27.225          48.807         120.195         136.871         156.512         158.154         184.246         227.811         247.440         267.762         281.215
  440          28.187          28.194          50.505         120.220         136.821         156.929         158.118         184.062         227.761         247.445         267.712         281.094
  441          29.162          29.175          52.198         120.246         136.776         157.351         158.081         183.872         227.710         247.451         267.661         280.968
  442          30.130          30.164          53.887         120.273         136.737         157.778         158.043         183.677         227.657         247.456         267.607         280.838
  443          31.098          31.154          55.571         120.302         136.702         158.005         158.210         183.477         227.603         247.462         267.551         280.703
  444          32.065          32.146          57.250         120.333         136.673         157.965         158.646         183.271         227.547         247.467         267.494         280.564
  445          33.031          33.138          58.923         120.365         136.650         157.925         159.086         183.061         227.490         247.473         267.434         280.421
  446          33.997          34.132          60.591         120.398         136.632         157.883         159.529         182.846         227.431         247.478         267.372         280.273
  447          34.963          35.128          62.254         120.433         136.620         157.842         159.976         182.627         227.371         247.484         267.308         280.121
  448          35.928          36.124          63.911         120.470         136.613         157.799         160.427         182.402         227.309         247.489         267.242         279.965
  449          36.893          37.121          65.562         120.508         136.612         157.756         160.880         182.174         227.246         247.494         267.174         279.804
  450          37.857          38.120          67.206         120.548         136.617         157.712         161.336         181.941         227.182         247.500         267.104         279.639
  451          38.820          39.120          68.845         120.590         136.627         157.667         161.794         181.704         227.116         247.505         267.031         279.469
  452          39.783          40.120          70.478         120.633         136.642         157.622         162.254         181.463         227.049         247.510         266.956         279.295
  453          40.745          41.121          72.104         120.678         136.663         157.576         162.717         181.219         226.981         247.515         266.879         279.117
  454          41.707          42.124          73.723         120.725         136.690         157.530         163.181         180.970         226.911         247.520         266.800         278.934
  455          42.668          43.127          75.336         120.774         136.722         157.483         163.646         180.718         226.840         247.524         266.718         278.747
  456          43.628          44.131          76.942         120.825         136.760         157.436         164.113         180.463         226.768         247.529         266.634         278.555
  457          44.588          45.135          78.541         120.878         136.802         157.388         164.580         180.204         226.695         247.533         266.548         278.359
  458          45.547          46.140          80.133         120.934         136.851         157.340         165.049         179.942         226.621         247.537         266.459         278.159
  459          46.505          47.146          81.717         120.991         136.904         157.292         165.518         179.678         226.545         247.541         266.368         277.954
  460          47.462          48.151          83.295         121.050         136.963         157.243         165.988         179.410         226.469         247.545         266.275         277.745
  461          48.419          49.158          84.864         121.111         137.026         157.195         166.458         179.140         226.391         247.548         266.179         277.531
  462          49.375          50.164          86.426         121.175         137.095         157.145         166.928         178.867         226.312         247.551         266.081         277.313
  463          50.330          51.170          87.981         121.241         137.169         157.096         167.398         178.591         226.233         247.554         265.980         277.091
  464          51.284          52.177          89.527         121.309         137.248         157.047         167.867         178.314         226.152         247.556         265.877         276.864
  465          52.237          53.183          91.065         121.380         137.332         156.997         168.336         178.034         226.071         247.559         265.771         276.632
  466          53.189          54.189          92.596         121.453         137.420         156.947         168.804         177.753         225.988         247.560         265.663         276.397
  467          54.141          55.195          94.117         121.529         137.513         156.898         169.272         177.469         225.905         247.562         265.553         276.157
  468          55.091          56.200          95.631         121.607         137.611         156.848         169.738         177.184         225.821         247.563         265.440         275.912
  469          56.041          57.205          97.136         121.687         137.713         156.798         170.203         176.897         225.736         247.564         265.324         275.663
  470          56.989          58.209          98.632         121.770         137.820         156.749         170.667         176.609         225.651         247.564         265.206         275.410
  471          57.937          59.212         100.120         121.856         137.931         156.699         171.129         176.320         225.564         247.564         265.086         275.152
  472          58.883          60.214         101.598         121.945         138.047         156.650         171.589         176.030         225.477         247.564         264.963         274.890
  473          59.828          61.215         103.068         122.036         138.167         156.600         172.048         175.739         225.390         247.563         264.837         274.623
  474          60.773          62.215         104.528         122.130         138.291         156.551         172.504         175.447         225.302         247.561         264.709         274.352
  475          61.716          63.213         105.979         122.227         138.420         156.502         172.959         175.154         225.213         247.559         264.579         274.077
  476          62.657          64.210         107.420         122.327         138.552         156.453         173.411         174.861         225.124         247.557         264.446         273.797
  477          63.598          65.205         108.852         122.430         138.688         156.405         173.860         174.568         225.034         247.554         264.310         273.513
  478          64.537          66.198         110.274         122.536         138.829         156.356         174.274         174.307         224.944         247.551         264.172         273.224
  479          65.475          67.189         111.685         122.645         138.973         156.308         173.980         174.752         224.853         247.547         264.031         272.932
  480          66.412          68.178         113.087         122.759         139.121         156.261         173.686         175.193         224.763         247.542         263.888         272.635
  481          67.347          69.165         114.477         122.876         139.273         156.213         173.393         175.632         224.671         247.537         263.743         272.333
  482          68.281          70.149         115.856         122.997         139.428         156.166         173.099         176.067         224.580         247.531         263.594         272.027
  483          69.214          71.130         117.222         123.125         139.587         156.120         172.806         176.499         224.489         247.525         263.444         271.717
  484          70.145          72.109         118.573         123.260         139.750         156.074         172.514         176.928         224.397         247.518         263.291         271.403
  485          71.074          73.084         119.905         123.408         139.916         156.028         172.222         177.353         224.305         247.510         263.135         271.085
  486          72.002          74.057         121.202         123.582         140.085         155.983         171.931         177.774         224.213         247.502         262.977         270.762
  487          72.929          75.026         122.409         123.840         140.258         155.938         171.641         178.192         224.121         247.493         262.817         270.435
  488          73.854          75.991         123.277         124.430         140.434         155.893         171.351         178.606         224.029         247.484         262.654         270.104
  489          74.777          76.953         123.655         125.502         140.613         155.849         171.063         179.017         223.938         247.473         262.489         269.768
  490          75.698          77.911         123.868         126.731         140.796         155.806         170.776         179.423         223.846         247.463         262.322         269.429
  491          76.618          78.866         124.043         127.991         140.982         155.763         170.490         179.825         223.755         247.451         262.152         269.085
  492          77.536          79.816         124.206         129.255         141.170         155.720         170.205         180.223         223.664         247.439         261.980         268.737
  493          78.452          80.761         124.366         130.515         141.362         155.678         169.922         180.617         223.573         247.425         261.806         268.386
  494          79.366          81.703         124.526         131.768         141.556         155.636         169.640         181.006         223.482         247.412         261.629         268.030
  495          80.278          82.639         124.686         133.012         141.753         155.595         169.360         181.391         223.392         247.397         261.451         267.670
  496          81.188          83.571         124.848         134.246         141.953         155.555         169.081         181.772         223.303         247.382         261.270         267.306
  497          82.096          84.498         125.012         135.470         142.156         155.515         168.804         182.147         223.214         247.365         261.087         266.939
  498          83.002          85.420         125.179         136.684         142.361         155.475         168.529         182.519         223.125         247.349         260.902         266.567
  499          83.906          86.336         125.349         137.887         142.569         155.436         168.255         182.885         223.038         247.331         260.715         266.191
  500          84.807          87.247         125.522         139.079         142.779         155.397         167.984         183.247         222.951         247.312         260.526         265.812
  501          85.706          88.153         125.697         140.260         142.991         155.359         167.714         183.605         222.864         247.293         260.335         265.429
  502          86.603          89.053         125.875         141.430         143.206         155.321         167.445         183.957         222.779         247.273         260.142         265.042
  503          87.498          89.947         126.057         142.589         143.423         155.283         167.179         184.305         222.694         247.252         259.947         264.652
  504          88.390          90.835         126.242         143.641         143.737         155.246         166.915         184.647         222.611         247.230         259.750         264.258
  505          89.280          91.717         126.429         143.862         144.873         155.209         166.652         184.985         222.528         247.208         259.552         263.860
  506          90.167          92.593         126.620         144.085         145.997         155.173         166.392         185.318         222.447         247.184         259.352         263.459
  507          91.051          93.462         126.814         144.309         147.110         155.137         166.133         185.646         222.367         247.160         259.150         263.054
  508          91.933          94.325         127.012         144.535         148.211         155.101         165.877         185.969         222.288         247.135         258.947         262.645
  509          92.811          95.181         127.212         144.762         149.301         155.065         165.622         186.287         222.210         247.109         258.742         262.234
  510          93.687          96.031         127.416         144.991         150.379         155.030         165.369         186.600         222.134         247.082         258.536         261.819
  511          94.561          96.874         127.622         145.221         151.445         154.995         165.118         186.908         222.059         247.054         258.329         261.401
  512          95.431          97.710         127.833         145.452         152.499         154.959         164.869         187.212         221.985         247.026         258.120         260.979
  513          96.298          98.539         128.046         145.684         153.541         154.924         164.622         187.510         221.914         246.996         257.909         260.555
  514          97.162          99.361         128.262         145.916         154.571         154.889         164.377         187.803         221.844         246.966         257.698         260.127
  515          98.022         100.176         128.482         146.149         154.854         155.589         164.134         188.092         221.775         246.935         257.486         259.696
  516          98.880         100.984         128.705         146.383         154.819         156.594         163.893         188.376         221.709         246.903         257.272         259.263
  517          99.734         101.784         128.931         146.616         154.784         157.587         163.655         188.654         221.644         246.870         257.058         258.827
  518         100.584         102.577         129.160         146.850         154.748         158.565         163.420         188.928         221.582         246.836         256.842         258.387
  519         101.431         103.363         129.392         147.083         154.713         159.529         163.189         189.198         221.521         246.802         256.626         257.945
  520         102.274         104.142         129.628         147.316         154.677         160.472         162.968         189.462         221.463         246.767         256.409         257.501
  521         103.114         104.913         129.866         147.549         154.640         161.375         162.776         189.722         221.407         246.731         256.191         257.054
  522         103.950         105.677         130.108         147.781         154.604         162.071         162.780         189.977         221.353         246.694         255.973         256.604
  523         104.782         106.433         130.352         148.011         154.566         162.108         163.432         190.228         221.302         246.656         255.754         256.153
  524         105.610         107.182         130.600         148.240         154.528         161.923         164.295         190.474         221.253         246.618         255.535         255.699
  525         106.433         107.923         130.850         148.468         154.489         161.708         165.177         190.716         221.207         246.579         255.242         255.316
  526         107.253         108.657         131.104         148.694         154.450         161.485         166.055         190.953         221.163         246.539         254.784         255.096
  527         108.068         109.384         131.360         148.918         154.410         161.259         166.925         191.186         221.123         246.498         254.324         254.876
  528         108.879         110.103         131.619         149.140         154.368         161.032         167.784         191.414         221.085         246.457         253.861         254.656
  529         109.686         110.815         131.881         149.359         154.326         160.804         168.632         191.639         221.050         246.415         253.397         254.437
  530         110.488         111.519         132.146         149.575         154.283         160.576         169.469         191.859         221.019         246.372         252.932         254.217
  531         111.285         112.217         132.414         149.788         154.238         160.348         170.293         192.075         220.990         246.329         252.465         253.997
  532         112.077         112.906         132.684         149.998         154.192         160.120         171.106         192.287         220.965         246.285         251.996         253.778
  533         112.864         113.589         132.956         150.204         154.145         159.891         171.907         192.495         220.943         246.240         251.526         253.559
  534         113.647         114.265         133.231         150.406         154.096         159.662         172.695         192.699         220.925         246.195         251.055         253.341
  535         114.424         114.933         133.508         150.604         154.045         159.433         173.471         192.899         220.910         246.150         250.583         253.123
  536         115.196         115.595         133.788         150.797         153.993         159.203         174.235         193.095         220.899         246.104         250.109         252.906
  537         115.962         116.249         134.070         150.986         153.939         158.972         174.987         193.288         220.892         246.058         249.635         252.690
  538         116.723         116.897         134.354         151.170         153.882         158.741         175.727         193.476         220.888         246.011         249.161         252.475
  539         117.479         117.538         134.640         151.348         153.824         158.510         176.454         193.662         220.889         245.964         248.685         252.261
  540         118.172         118.228         134.928         151.521         153.763         158.277         177.169         193.843         220.894         245.917         248.209         252.048
  541         118.800         118.972         135.218         151.688         153.700         158.044         177.871         194.021         220.903         245.870         247.733         251.836
  542         119.421         119.710         135.509         151.849         153.635         157.810         178.562         194.195         220.916         245.822         247.257         251.625
  543         120.035         120.442         135.802         152.003         153.566         157.574         179.239         194.365         220.934         245.775         246.781         251.416
  544         120.644         121.167         136.096         152.151         153.495         157.338         179.905         194.532         220.956         245.727         246.305         251.208
  545         121.245         121.887         136.391         152.292         153.421         157.100         180.558         194.696         220.983         245.679         245.829         251.002
  546         121.841         122.599         136.687         152.426         153.344         156.861         181.198         194.856         221.015         245.353         245.632         250.798
  547         122.431         123.305         136.985         152.552         153.264         156.620         181.826         195.012         221.052         244.878         245.584         250.595
  548         123.014         124.005         137.283         152.671         153.181         156.378         182.442         195.164         221.094         244.404         245.537         250.394
  549         123.592         124.697         137.581         152.782         153.093         156.135         183.045         195.313         221.140         243.931         245.491         250.196
  550         124.164         125.383         137.880         152.886         153.003         155.891         183.636         195.458         221.193         243.458         245.444         249.999
  551         124.730         126.062         138.178         152.908         152.981         155.644         184.214         195.600         221.250         242.987         245.398         249.805
  552         125.290         126.733         138.477         152.810         153.068         155.397         184.780         195.737         221.313         242.517         245.353         249.613
  553         125.845         127.397         138.775         152.707         153.147         155.148         185.333         195.871         221.381         242.049         245.308         249.424
  554         126.394         128.053         139.072         152.600         153.217         154.898         185.873         196.000         221.455         241.582         245.265         249.237
  555         126.938         128.702         139.368         152.488         153.278         154.646         186.401         196.126         221.535         241.118         245.222         249.053
  556         127.476         129.344         139.662         152.372         153.331         154.394         186.917         196.247         221.621         240.655         245.180         248.872
  557         128.009         129.977         139.955         152.252         153.375         154.140         187.419         196.364         221.713         240.194         245.139         248.693
  558         128.536         130.603         140.245         152.126         153.410         153.885         187.910         196.477         221.811         239.736         245.099         248.518
  559         129.059         131.220         140.533         151.995         153.436         153.630         188.387         196.585         221.915         239.280         245.061         248.345
  560         129.576         131.829         140.817         151.859         153.375         153.453         188.852         196.688         222.025         238.827         245.024         248.176
  561         130.088         132.430         141.097         151.717         153.120         153.461         189.305         196.786         222.141         238.377         244.988         248.010
  562         130.595         133.023         141.372         151.570         152.865         153.460         189.745         196.879         222.265         237.930         244.954         247.847
  563         131.097         133.607         141.643         151.417         152.612         153.450         190.172         196.967         222.394         237.486         244.922         247.688
  564         131.593         134.183         141.906         151.258         152.360         153.431         190.586         197.050         222.530         237.046         244.892         247.533
  565         132.085         134.750         142.162         151.093         152.111         153.403         190.988         197.127         222.673         236.609         244.864         247.381
  566         132.571         135.308         142.410         150.922         151.866         153.367         191.378         197.198         222.823         236.176         244.838         247.232
  567         133.052         135.858         142.647         150.744         151.626         153.321         191.755         197.263         222.979         235.747         244.814         247.088
  568         133.529         136.398         142.873         150.560         151.391         153.267         192.119         197.322         223.143         235.321         244.792         246.947
  569         134.000         136.930         143.084         150.369         151.165         153.205         192.470         197.374         223.313         234.900         244.773         246.811
  570         134.465         137.452         143.280         150.171         150.949         153.134         192.809         197.420         223.490         234.484         244.757         246.678
  571         134.926         137.966         143.456         149.966         150.746         153.056         193.136         197.458         223.675         234.072         244.743         246.550
  572         135.381         138.470         143.611         149.753         150.558         152.969         193.450         197.490         223.866         233.664         244.732         246.425
  573         135.831         138.965         143.741         149.534         150.388         152.874         193.752         197.514         224.065         233.262         244.725         246.305
  574         136.275         139.450         143.842         149.307         150.240         152.772         194.041         197.530         224.271         232.865         244.720         246.189
  575         136.714         139.927         143.912         149.072         150.116         152.663         194.318         197.539         224.484         232.472         244.718         246.078
  576         137.146         140.394         143.947         148.829         150.019         152.547         194.583         197.540         224.704         232.086         244.720         245.971
  577         137.573         140.851         143.945         148.579         149.952         152.425         194.835         197.532         224.932         231.704         244.725         245.868
  578         137.993         141.299         143.905         148.320         149.916         152.297         195.076         197.516         225.167         231.329         244.734         245.770
  579         138.407         141.738         143.826         148.053         149.909         152.162         195.304         197.490         225.409         230.959         244.746         245.676
  580         138.814         142.168         143.710         147.778         149.932         152.023         195.520         197.456         225.658         230.595         244.762         245.587
  581         139.214         142.587         143.559         147.494         149.981         151.879         195.725         197.413         225.914         230.237         244.782         245.502
  582         139.606         142.998         143.375         147.202         150.054         151.731         195.917         197.360         226.178         229.885         244.806         245.422
  583         139.990         143.162         143.399         146.901         150.147         151.580         196.098         197.298         226.449         229.539         244.834         245.346
  584         140.365         142.923         143.791         146.592         150.257         151.426         196.268         197.225         226.727         229.200         244.865         245.275
  585         140.730         142.661         144.173         146.274         150.381         151.271         196.426         197.143         227.012         228.867         244.902         245.208
  586         141.086         142.378         144.546         145.946         150.516         151.115         196.573         197.050         227.304         228.541         244.942         245.146
  587         141.429         142.077         144.910         145.610         150.659         150.960         196.708         196.947         227.603         228.221         244.986         245.089
  588         141.760         141.760         145.265         145.265         150.807         150.807         196.833         196.833         227.909         227.909         245.035         245.035
