# Phonon frequencies in cm-1
    1          49.481          49.481          60.720          60.720          62.647          62.647          69.834          69.834          74.321          74.321          76.761          76.761          85.587          85.587          87.298          87.298          89.926          89.926          98.850          98.850         103.821         103.821         107.543         107.543         109.832         109.832         111.164         111.164         118.105         118.105         119.343         119.343         124.782         124.782         129.620         129.620         136.683         136.683         143.964         143.964         157.429         157.429         166.834         166.834         171.053         171.053         176.211         176.211
    2          49.347          49.607          60.353          61.067          62.525          62.775          69.692          69.965          73.985          74.655          76.766          76.774          85.553          85.584          87.134          87.484          89.842          90.021          98.792          98.900         103.796         103.841         107.462         107.564         109.674         110.041         111.074         111.255         117.946         118.261         119.142         119.551         124.777         124.804         129.488         129.756         136.617         136.749         143.940         143.991         157.336         157.519         166.834         166.834         170.969         171.136         176.199         176.220
    3          49.207          49.724          59.970          61.382          62.423          62.902          69.537          70.085          73.658          74.978          76.800          76.801          85.493          85.531          87.008          87.676          89.775          90.123          98.727          98.945         103.767         103.854         107.322         107.533         109.570         110.284         110.983         111.350         117.789         118.392         118.973         119.761         124.787         124.843         129.361         129.895         136.551         136.814         143.920         144.023         157.242         157.607         166.834         166.834         170.882         171.216         176.185         176.228
    4          49.062          49.832          59.575          61.632          62.375          63.022          69.370          70.196          73.345          75.275          76.838          76.872          85.413          85.421          86.931          87.857          89.734          90.230          98.655          98.983         103.735         103.859         107.132         107.461         109.516         110.541         110.891         111.456         117.637         118.418         118.916         119.968         124.813         124.898         129.237         130.039         136.484         136.877         143.904         144.059         157.145         157.692         166.834         166.834         170.794         171.294         176.168         176.233
    5          48.911          49.930          59.168          61.752          62.449          63.131          69.188          70.299          73.052          75.528          76.884          77.000          85.259          85.319          86.902          88.011          89.728          90.341          98.573          99.016         103.701         103.852         106.911         107.359         109.497         110.787         110.797         111.582         117.491         118.290         119.024         120.172         124.855         124.970         129.118         130.186         136.417         136.940         143.891         144.098         157.045         157.775         166.834         166.834         170.703         171.371         176.149         176.237
    6          48.756          50.016          58.751          61.738          62.650          63.223          68.994          70.394          72.784          75.723          76.935          77.194          85.054          85.216          86.911          88.124          89.769          90.452          98.482          99.043         103.666         103.831         106.677         107.233         109.500         110.702         110.998         111.746         117.351         118.095         119.210         120.372         124.911         125.058         129.002         130.336         136.351         137.000         143.882         144.142         156.944         157.855         166.833         166.833         170.611         171.445         176.129         176.238
    7          48.598          50.089          58.325          61.666          62.902          63.294          68.789          70.483          72.543          75.861          76.992          77.451          84.821          85.105          86.946          88.186          89.863          90.564          98.382          99.066         103.630         103.794         106.446         107.091         109.514         110.605         111.156         111.952         117.216         117.882         119.431         120.569         124.980         125.160         128.891         130.490         136.286         137.060         143.876         144.190         156.840         157.933         166.832         166.833         170.517         171.517         176.106         176.237
    8          48.437          50.149          57.891          61.579          63.164          63.336          68.575          70.564          72.333          75.955          77.052          77.757          84.570          84.988          86.999          88.200          90.006          90.676          98.271          99.083         103.595         103.738         106.229         106.934         109.532         110.506         111.266         112.192         117.088         117.663         119.674         120.762         125.063         125.277         128.785         130.648         136.222         137.118         143.874         144.242         156.735         158.009         166.831         166.833         170.420         171.587         176.080         176.234
    9          48.274          50.194          57.448          61.493          63.344          63.420          68.359          70.639          72.153          76.022          77.115          78.093          84.307          84.867          87.064          88.174          90.190          90.787          98.150          99.096         103.561         103.661         106.034         106.767         109.547         110.407         111.341         112.445         116.968         117.446         119.936         120.952         125.158         125.406         128.683         130.808         136.160         137.174         143.874         144.298         156.627         158.082         166.829         166.833         170.322         171.655         176.053         176.228
   10          48.109          50.224          56.999          61.415          63.310          63.666          68.145          70.707          72.006          76.073          77.181          78.445          84.039          84.746          87.137          88.118          90.400          90.896          98.019          99.104         103.528         103.565         105.867         106.592         109.555         110.307         111.394         112.695         116.854         117.233         120.218         121.139         125.265         125.546         128.586         130.972         136.100         137.228         143.878         144.358         156.517         158.153         166.827         166.832         170.222         171.721         176.023         176.221
   11          47.943          50.239          56.543          61.347          63.230          63.897          67.940          70.769          71.888          76.115          77.248          78.802          83.767          84.625          87.217          88.042          90.627          91.002          97.880          99.107         103.450         103.497         105.729         106.409         109.555         110.207         111.430         112.930         116.749         117.027         120.518         121.324         125.382         125.696         128.494         131.138         136.043         137.281         143.885         144.422         156.405         158.221         166.825         166.832         170.121         171.784         175.991         176.212
   12          47.776          50.237          56.081          61.292          63.098          64.114          67.749          70.824          71.801          76.153          77.315          79.159          83.496          84.509          87.300          87.951          90.865          91.107          97.732          99.105         103.322         103.468         105.617         106.221         109.544         110.107         111.454         113.144         116.651         116.833         120.837         121.507         125.509         125.852         128.409         131.306         135.988         137.333         143.894         144.490         156.291         158.286         166.822         166.832         170.017         171.846         175.957         176.200
   13          47.609          50.218          55.614          61.250          62.912          64.315          67.577          70.873          71.740          76.188          77.383          79.507          83.228          84.401          87.388          87.850          91.107          91.208          97.577          99.098         103.185         103.442         105.528         106.029         109.520         110.007         111.467         113.330         116.563         116.653         121.174         121.690         125.645         126.013         128.332         131.477         135.936         137.383         143.906         144.562         156.176         158.350         166.819         166.832         169.912         171.905         175.921         176.187
   14          47.440          50.183          55.142          61.222          62.670          64.499          67.424          70.915          71.705          76.221          77.450          79.843          82.964          84.305          87.478          87.740          91.306          91.350          97.419          99.085         103.044         103.418         105.457         105.832         109.484         109.909         111.469         113.483         116.483         116.493         121.529         121.872         125.789         126.174         128.266         131.650         135.888         137.432         143.921         144.637         156.058         158.410         166.815         166.832         169.805         171.962         175.883         176.172
   15          47.272          50.131          54.667          61.208          62.377          64.666          67.289          70.949          71.694          76.252          77.516          80.158          82.706          84.229          87.571          87.623          91.400          91.591          97.260          99.067         102.904         103.397         105.400         105.633         109.434         109.811         111.463         113.600         116.355         116.413         121.900         122.054         125.942         126.332         128.212         131.824         135.844         137.480         143.939         144.716         155.939         158.468         166.810         166.831         169.697         172.018         175.842         176.155
   16          47.103          50.062          54.188          61.208          62.035          64.817          67.170          70.975          71.703          76.280          77.581          80.448          82.455          84.178          87.500          87.667          91.491          91.827          97.104          99.043         102.768         103.379         105.352         105.432         109.370         109.717         111.447         113.678         116.246         116.352         122.237         122.286         126.101         126.479         128.176         132.000         135.805         137.528         143.959         144.799         155.818         158.524         166.804         166.831         169.586         172.071         175.800         176.136
   17          46.934          49.977          53.707          61.220          61.650          64.951          67.062          70.993          71.729          76.304          77.643          80.705          82.215          84.162          87.371          87.765          91.579          92.056          96.954          99.013         102.637         103.365         105.229         105.310         109.291         109.627         111.422         113.714         116.167         116.299         122.421         122.685         126.267         126.610         128.164         132.177         135.770         137.575         143.981         144.885         155.695         158.577         166.798         166.831         169.475         172.122         175.755         176.115
   18          46.764          49.878          53.224          61.228          61.245          65.069          66.962          71.000          71.771          76.322          77.703          80.924          81.985          84.187          87.238          87.865          91.662          92.276          96.814          98.977         102.513         103.354         105.025         105.272         109.196         109.542         111.388         113.712         116.117         116.256         122.605         123.095         126.439         126.716         128.183         132.355         135.741         137.622         144.005         144.975         155.570         158.627         166.791         166.831         169.361         172.171         175.708         176.092
   19          46.593          49.763          52.742          60.774          61.280          65.171          66.866          70.996          71.825          76.333          77.760          81.100          81.768          84.258          87.100          87.968          91.741          92.485          96.689          98.934         102.396         103.347         104.821         105.235         109.085         109.465         111.346         113.675         116.096         116.221         122.791         123.515         126.616         126.789         128.239         132.534         135.718         137.669         144.031         145.068         155.444         158.675         166.783         166.830         169.247         172.218         175.659         176.068
   20          46.420          49.635          52.260          60.293          61.325          65.259          66.771          70.979          71.887          76.334          77.814          81.235          81.566          84.375          86.960          88.073          91.817          92.681          96.583          98.884         102.286         103.343         104.615         105.199         108.959         109.394         111.294         113.610         116.098         116.195         122.978         123.943         126.797         126.829         128.333         132.713         135.700         137.717         144.060         145.164         155.316         158.721         166.774         166.830         169.131         172.263         175.609         176.042
   21          46.244          49.494          51.780          59.789          61.377          65.332          66.674          70.949          71.954          76.325          77.865          81.335          81.381          84.535          86.819          88.180          91.888          92.862          96.499          98.827         102.181         103.342         104.410         105.162         108.820         109.331         111.234         113.526         116.117         116.176         123.165         124.377         126.838         126.983         128.461         132.893         135.688         137.767         144.090         145.262         155.187         158.764         166.764         166.830         169.013         172.305         175.556         176.015
   22          46.063          49.341          51.305          59.264          61.435          65.391          66.575          70.903          72.023          76.305          77.913          81.212          81.408          84.725          86.680          88.289          91.955          93.026          96.442          98.762         102.080         103.344         104.205         105.124         108.670         109.273         111.164         113.428         116.149         116.164         123.352         124.814         126.823         127.172         128.617         133.073         135.684         137.818         144.123         145.364         155.056         158.805         166.752         166.829         168.894         172.346         175.501         175.986
   23          45.877          49.177          50.836          58.722          61.496          65.439          66.472          70.841          72.089          76.272          77.960          81.063          81.465          84.931          86.552          88.401          92.019          93.172          96.414          98.690         101.983         103.349         104.001         105.084         108.509         109.222         111.086         113.325         116.158         116.189         123.539         125.254         126.790         127.364         128.793         133.253         135.686         137.871         144.157         145.468         154.923         158.843         166.739         166.829         168.774         172.385         175.444         175.955
   24          45.682          49.003          50.377          58.166          61.558          65.474          66.364          70.760          72.149          76.226          78.007          80.932          81.516          85.130          86.449          88.514          92.078          93.301          96.415          98.610         101.887         103.354         103.799         105.044         108.340         109.176         111.000         113.220         116.159         116.234         123.725         125.693         126.747         127.558         128.983         133.433         135.696         137.927         144.192         145.574         154.790         158.879         166.725         166.828         168.653         172.422         175.386         175.923
   25          45.476          48.821          49.930          57.596          61.619          65.498          66.251          70.660          72.201          76.170          78.055          80.822          81.568          85.287          86.399          88.630          92.134          93.413          96.445          98.522         101.791         103.355         103.605         105.002         108.164         109.135         110.906         113.117         116.165         116.281         123.907         126.131         126.698         127.755         129.183         133.613         135.713         137.986         144.230         145.683         154.655         158.912         166.710         166.827         168.530         172.457         175.325         175.889
   26          45.256          48.630          49.499          57.015          61.676          65.513          66.131          70.539          72.240          76.104          78.106          80.730          81.627          85.358          86.443          88.747          92.185          93.510          96.503          98.427         101.695         103.309         103.460         104.960         107.983         109.100         110.806         113.019         116.175         116.330         124.085         126.565         126.649         127.953         129.389         133.795         135.737         138.048         144.269         145.794         154.519         158.943         166.693         166.826         168.407         172.490         175.263         175.854
   27          45.017          48.433          49.088          56.423          61.726          65.517          66.006          70.399          72.265          76.032          78.162          80.657          81.696          85.328          86.590          88.867          92.233          93.597          96.585          98.324         101.596         103.147         103.434         104.919         107.797         109.069         110.699         112.927         116.190         116.378         124.254         126.603         126.993         128.152         129.598         133.977         135.770         138.115         144.309         145.907         154.381         158.972         166.674         166.824         168.283         172.521         175.199         175.818
   28          44.755          48.229          48.702          55.823          61.765          65.511          65.875          70.241          72.273          75.955          78.226          80.602          81.777          85.228          86.809          88.987          92.278          93.677          96.687          98.213         101.494         102.949         103.444         104.878         107.609         109.043         110.588         112.844         116.209         116.425         124.412         126.567         127.413         128.353         129.809         134.160         135.811         138.186         144.351         146.022         154.243         158.998         166.653         166.822         168.158         172.551         175.133         175.781
   29          44.466          48.019          48.345          55.214          61.791          65.494          65.738          70.066          72.263          75.876          78.300          80.562          81.870          85.090          87.064          89.110          92.319          93.753          96.806          98.095         101.387         102.745         103.462         104.839         107.419         109.021         110.473         112.770         116.232         116.471         124.554         126.546         127.822         128.556         130.020         134.346         135.861         138.262         144.395         146.139         154.103         159.023         166.631         166.820         168.032         172.578         175.066         175.742
   30          44.148          47.805          48.020          54.599          61.800          65.465          65.594          69.879          72.234          75.798          78.385          80.536          81.975          84.933          87.336          89.233          92.358          93.829          96.935          97.971         101.275         102.538         103.483         104.802         107.228         109.002         110.356         112.704         116.257         116.516         124.673         126.545         128.213         128.766         130.230         134.534         135.919         138.344         144.439         146.257         153.962         159.045         166.607         166.817         167.906         172.604         174.997         175.703
   31          43.797          47.587          47.729          53.979          61.789          65.421          65.444          69.687          72.188          75.723          78.482          80.523          82.092          84.767          87.614          89.357          92.393          93.908          97.073          97.839         101.157         102.329         103.506         104.769         107.039         108.987         110.237         112.649         116.285         116.559         124.763         126.572         128.576         128.990         130.438         134.726         135.985         138.431         144.485         146.378         153.821         159.065         166.581         166.813         167.780         172.628         174.926         175.662
   32          43.414          47.365          47.471          53.353          61.754          65.287          65.359          69.495          72.124          75.653          78.592          80.521          82.218          84.596          87.894          89.482          92.426          93.993          97.213          97.702         101.032         102.118         103.530         104.739         106.851         108.974         110.118         112.603         116.316         116.601         124.821         126.631         128.889         129.249         130.644         134.923         136.061         138.523         144.532         146.499         153.678         159.082         166.552         166.808         167.653         172.651         174.853         175.620
   33          43.000          47.140          47.246          52.724          61.690          65.124          65.276          69.315          72.043          75.587          78.713          80.528          82.353          84.425          88.171          89.606          92.458          94.085          97.355          97.559         100.902         101.905         103.554         104.712         106.667         108.964         110.000         112.568         116.349         116.642         124.845         126.724         129.139         129.552         130.846         135.125         136.145         138.623         144.580         146.622         153.535         159.098         166.522         166.801         167.528         172.672         174.779         175.578
   34          42.557          46.911          47.049          52.094          61.595          64.953          65.166          69.154          71.949          75.528          78.845          80.544          82.494          84.256          88.443          89.730          92.488          94.186          97.411          97.493         100.767         101.689         103.580         104.691         106.487         108.955         109.883         112.543         116.385         116.681         124.837         126.847         129.345         129.879         131.045         135.333         136.238         138.728         144.629         146.747         153.391         159.111         166.489         166.792         167.405         172.691         174.704         175.534
   35          42.090          46.681          46.875          51.464          61.465          64.776          65.028          69.021          71.842          75.474          78.986          80.568          82.640          84.090          88.710          89.852          92.517          94.296          97.258          97.624         100.627         101.470         103.605         104.673         106.313         108.948         109.767         112.528         116.422         116.719         124.803         126.996         129.527         130.209         131.239         135.550         136.340         138.840         144.680         146.872         153.247         159.123         166.454         166.778         167.285         172.709         174.627         175.490
   36          41.600          46.448          46.719          50.838          61.294          64.592          64.861          68.924          71.725          75.425          79.135          80.600          82.789          83.930          88.970          89.971          92.545          94.416          97.102          97.746         100.484         101.248         103.631         104.660         106.145         108.943         109.654         112.524         116.461         116.756         124.748         127.166         129.692         130.532         131.429         135.774         136.450         138.958         144.731         146.999         153.102         159.132         166.417         166.757         167.171         172.726         174.548         175.445
   37          41.092          46.213          46.573          50.220          61.081          64.401          64.666          68.866          71.600          75.381          79.287          80.640          82.935          83.780          89.222          90.087          92.575          94.547          96.943          97.853         100.342         101.023         103.657         104.652         105.986         108.937         109.542         112.530         116.502         116.792         124.677         127.352         129.843         130.845         131.614         136.006         136.570         139.082         144.783         147.127         152.956         159.140         166.377         166.722         167.071         172.741         174.469         175.399
   38          40.568          45.976          46.426          49.620          60.820          64.203          64.451          68.848          71.469          75.342          79.441          80.689          83.069          83.650          89.467          90.197          92.607          94.687          96.781          97.941         100.204         100.795         103.682         104.648         105.835         108.933         109.433         112.547         116.545         116.827         124.594         127.550         129.981         131.145         131.793         136.247         136.697         139.213         144.837         147.256         152.811         159.145         166.334         166.665         166.992         172.754         174.387         175.353
   39          40.030          45.737          46.263          49.049          60.511          63.998          64.221          68.867          71.333          75.306          79.592          80.749          83.160          83.570          89.703          90.300          92.642          94.836          96.618          98.005         100.074         100.564         103.707         104.648         105.695         108.928         109.325         112.576         116.590         116.862         124.502         127.757         130.106         131.434         131.968         136.496         136.834         139.351         144.891         147.386         152.666         159.149         166.289         166.581         166.939         172.767         174.305         175.306
   40          39.481          45.495          46.062          48.529          60.152          63.786          63.983          68.919          71.196          75.273          79.736          80.822          83.150          83.599          89.932          90.395          92.682          94.994          96.455          98.039          99.957         100.330         103.732         104.652         105.565         108.923         109.220         112.615         116.636         116.897         124.403         127.970         130.218         131.710         132.137         136.752         136.978         139.495         144.945         147.516         152.520         159.151         166.241         166.478         166.906         172.778         174.221         175.258
   41          38.921          45.252          45.794          48.088          59.744          63.567          63.743          69.000          71.057          75.243          79.868          80.911          83.060          83.713          90.152          90.478          92.728          95.160          96.292          98.037          99.860         100.093         103.756         104.660         105.447         108.917         109.115         112.665         116.684         116.932         124.299         128.188         130.315         131.975         132.301         137.014         137.130         139.645         145.001         147.647         152.376         159.151         166.190         166.361         166.884         172.788         174.137         175.210
   42          38.353          45.005          45.431          47.751          59.291          63.341          63.506          69.106          70.919          75.215          79.985          81.018          82.945          83.859          90.365          90.548          92.782          95.333          96.130          97.996          99.784          99.853         103.781         104.672         105.343         108.911         109.013         112.726         116.734         116.967         124.191         128.410         130.399         132.230         132.459         137.281         137.289         139.803         145.057         147.779         152.232         159.150         166.137         166.238         166.870         172.797         174.051         175.162
   43          37.777          44.755          44.969          47.523          58.795          63.108          63.273          69.232          70.782          75.189          80.084          81.144          82.826          84.014          90.570          90.603          92.846          95.510          95.970          97.915          99.611          99.731         103.805         104.687         105.251         108.903         108.911         112.797         116.785         117.003         124.081         128.634         130.468         132.476         132.613         137.455         137.550         139.967         145.114         147.911         152.089         159.146         166.081         166.111         166.859         172.805         173.963         175.113
   44          37.195          44.426          44.501          47.385          58.263          62.868          63.045          69.375          70.648          75.163          80.166          81.288          82.709          84.173          90.641          90.768          92.920          95.690          95.813          97.799          99.367          99.698         103.829         104.704         105.174         108.810         108.895         112.879         116.839         117.040         123.968         128.859         130.524         132.714         132.761         137.628         137.820         140.139         145.171         148.043         151.948         159.142         165.981         166.021         166.850         172.812         173.875         175.064
   45          36.606          43.824          44.242          47.314          57.700          62.623          62.821          69.532          70.517          75.139          80.231          81.447          82.596          84.333          90.660          90.960          93.006          95.661          95.871          97.656          99.121          99.677         103.852         104.725         105.112         108.711         108.885         112.969         116.894         117.078         123.855         129.086         130.566         132.905         132.945         137.807         138.088         140.318         145.229         148.174         151.809         159.135         165.850         165.959         166.842         172.818         173.786         175.015
   46          36.012          43.185          43.978          47.288          57.111          62.371          62.602          69.701          70.390          75.115          80.283          81.618          82.487          84.492          90.660          91.144          93.103          95.513          96.047          97.496          98.874          99.664         103.876         104.749         105.064         108.611         108.874         113.068         116.951         117.118         123.741         129.312         130.595         133.044         133.169         137.992         138.352         140.504         145.288         148.304         151.673         159.127         165.718         165.894         166.834         172.823         173.696         174.965
   47          35.413          42.519          43.706          47.295          56.502          62.114          62.385          69.879          70.268          75.092          80.324          81.796          82.384          84.651          90.640          91.323          93.211          95.371          96.210          97.333          98.627          99.653         103.900         104.773         105.032         108.513         108.861         113.176         117.010         117.159         123.627         129.539         130.611         133.179         133.388         138.182         138.612         140.699         145.347         148.433         151.541         159.117         165.586         165.826         166.828         172.827         173.605         174.916
   48          34.809          41.836          43.426          47.328          55.879          61.851          62.171          70.064          70.151          75.070          80.357          81.979          82.286          84.808          90.600          91.495          93.330          95.237          96.339          97.191          98.379          99.641         103.923         104.797         105.018         108.415         108.846         113.290         117.072         117.204         123.513         129.764         130.616         133.310         133.601         138.377         138.863         140.902         145.406         148.558         151.415         159.106         165.454         165.756         166.821         172.831         173.513         174.866
   49          34.202          41.138          43.136          47.381          55.246          61.584          61.958          70.039          70.255          75.048          80.382          82.164          82.194          84.962          90.541          91.660          93.457          95.110          96.388          97.118          98.132          99.625         103.947         104.818         105.023         108.318         108.829         113.410         117.135         117.252         123.401         129.988         130.610         133.437         133.809         138.577         139.107         141.112         145.466         148.679         151.295         159.094         165.322         165.682         166.814         172.834         173.420         174.816
   50          33.590          40.430          42.834          47.452          54.609          61.312          61.745          69.932          70.450          75.026          80.400          82.107          82.349          85.115          90.463          91.819          93.592          94.993          96.320          97.154          97.887          99.604         103.971         104.832         105.050         108.222         108.810         113.535         117.200         117.304         123.289         130.210         130.594         133.560         134.012         138.780         139.340         141.329         145.526         148.793         151.185         159.080         165.190         165.605         166.807         172.836         173.327         174.766
   51          32.975          39.713          42.517          47.537          53.972          61.037          61.532          69.832          70.649          75.005          80.414          82.026          82.533          85.265          90.368          91.971          93.731          94.886          96.165          97.270          97.643          99.579         103.995         104.841         105.095         108.126         108.790         113.663         117.268         117.360         123.178         130.430         130.568         133.681         134.210         138.987         139.564         141.553         145.586         148.898         151.088         159.065         165.058         165.525         166.800         172.838         173.233         174.716
   52          32.357          38.989          42.184          47.636          53.339          60.757          61.319          69.736          70.851          74.985          80.423          81.949          82.714          85.412          90.255          92.115          93.872          94.793          95.973          97.402          97.417          99.552         104.019         104.847         105.156         108.032         108.767         113.793         117.338         117.422         123.069         130.534         130.647         133.799         134.404         139.197         139.777         141.782         145.647         148.990         151.007         159.049         164.927         165.443         166.793         172.839         173.138         174.666
   53          31.736          38.259          41.831          47.746          52.716          60.475          61.105          69.647          71.054          74.965          80.428          81.878          82.891          85.556          90.128          92.250          94.009          94.717          95.766          97.164          97.571          99.523         104.044         104.852         105.229         107.939         108.743         113.925         117.410         117.490         122.962         130.492         130.860         133.915         134.592         139.410         139.980         142.015         145.707         149.063         150.949         159.031         164.797         165.357         166.786         172.840         173.042         174.617
   54          31.111          37.523          41.455          47.868          52.107          60.191          60.889          69.564          71.257          74.947          80.428          81.811          83.063          85.698          89.985          92.375          94.132          94.668          95.558          96.931          97.720          99.498         104.068         104.856         105.312         107.847         108.716         114.055         117.484         117.566         122.858         130.443         131.070         134.029         134.775         139.625         140.174         142.251         145.768         149.113         150.917         159.013         164.667         165.269         166.778         172.840         172.946         174.567
   55          30.484          36.781          41.053          48.001          51.516          59.904          60.673          69.486          71.460          74.930          80.425          81.748          83.229          85.835          89.830          92.487          94.217          94.666          95.356          96.703          97.857          99.480         104.093         104.859         105.404         107.757         108.687         114.183         117.561         117.649         122.755         130.388         131.275         134.142         134.953         139.842         140.359         142.487         145.828         149.135         150.917         158.993         164.539         165.178         166.770         172.840         172.850         174.517
   56          29.854          36.036          40.623          48.143          50.948          59.617          60.456          69.414          71.663          74.914          80.419          81.690          83.388          85.969          89.662          92.583          94.248          94.728          95.165          96.483          97.972          99.476         104.117         104.861         105.504         107.670         108.657         114.308         117.640         117.742         122.655         130.327         131.475         134.253         135.125         140.061         140.535         142.723         145.889         149.129         150.951         158.972         164.411         165.084         166.762         172.753         172.839         174.468
   57          29.222          35.286          40.161          48.294          50.406          59.328          60.237          69.347          71.864          74.900          80.408          81.636          83.539          86.098          89.483          92.659          94.236          94.838          94.992          96.273          98.059          99.493         104.141         104.861         105.610         107.584         108.624         114.427         117.722         117.844         122.558         130.262         131.670         134.365         135.291         140.281         140.705         142.956         145.950         149.096         151.016         158.950         164.284         164.988         166.753         172.656         172.838         174.419
   58          28.587          34.531          39.665          48.454          49.895          59.039          60.017          69.287          72.063          74.888          80.395          81.585          83.681          86.223          89.295          92.709          94.208          94.845          94.966          96.078          98.113          99.536         104.165         104.860         105.720         107.502         108.590         114.539         117.806         117.957         122.463         130.192         131.858         134.477         135.451         140.502         140.867         143.186         146.010         149.039         151.110         158.927         164.158         164.889         166.744         172.558         172.837         174.370
   59          27.950          33.774          39.133          48.622          49.416          58.750          59.796          69.232          72.259          74.879          80.377          81.538          83.814          86.342          89.099          92.729          94.176          94.730          95.086          95.908          98.132          99.605         104.188         104.858         105.835         107.423         108.554         114.644         117.892         118.081         122.371         130.119         132.039         134.590         135.604         140.724         141.024         143.411         146.070         148.964         151.228         158.903         164.034         164.788         166.734         172.460         172.835         174.322
   60          27.311          33.012          38.564          48.798          48.972          58.461          59.575          69.182          72.452          74.872          80.356          81.494          83.936          86.455          88.896          92.714          94.144          94.651          95.167          95.792          98.119          99.698         104.211         104.853         105.953         107.347         108.516         114.739         117.981         118.217         122.283         130.043         132.212         134.704         135.750         140.947         141.175         143.630         146.130         148.875         151.365         158.879         163.911         164.684         166.725         172.362         172.834         174.274
   61          26.670          32.247          37.957          48.563          48.981          58.174          59.352          69.138          72.641          74.868          80.331          81.454          84.046          86.562          88.688          92.666          94.115          94.611          95.161          95.775          98.081          99.811         104.233         104.846         106.074         107.276         108.478         114.826         118.072         118.364         122.197         129.964         132.377         134.820         135.889         141.169         141.321         143.843         146.189         148.776         151.517         158.853         163.789         164.579         166.715         172.264         172.832         174.226
   62          26.026          31.479          37.314          48.190          49.170          57.888          59.128          69.099          72.824          74.868          80.302          81.417          84.145          86.660          88.476          92.588          94.087          94.606          95.072          95.854          98.022          99.936         104.253         104.837         106.195         107.209         108.438         114.903         118.165         118.522         122.115         129.884         132.533         134.938         136.020         141.392         141.463         144.048         146.248         148.671         151.681         158.827         163.669         164.471         166.704         172.166         172.830         174.179
   63          25.381          30.708          36.635          47.851          49.366          57.605          58.904          69.066          73.002          74.873          80.268          81.383          84.229          86.750          88.262          92.489          94.059          94.631          94.948          95.981          97.948         100.070         104.272         104.826         106.318         107.148         108.397         114.969         118.261         118.691         122.036         129.803         132.680         135.060         136.143         141.601         141.614         144.244         146.307         148.563         151.855         158.800         163.551         164.361         166.693         172.068         172.828         174.132
   64          24.734          29.934          35.922          47.546          49.568          57.324          58.679          69.038          73.173          74.882          80.229          81.352          84.300          86.829          88.048          92.376          94.026          94.678          94.823          96.127          97.863         100.207         104.289         104.812         106.440         107.093         108.356         115.026         118.359         118.869         121.961         129.721         132.817         135.184         136.257         141.736         141.836         144.432         146.365         148.452         152.038         158.772         163.434         164.249         166.682         171.970         172.825         174.086
   65          24.085          29.156          35.177          47.273          49.774          57.047          58.454          69.015          73.336          74.897          80.185          81.324          84.356          86.896          87.836          92.259          93.984          94.713          94.741          96.279          97.770         100.346         104.303         104.796         106.562         107.044         108.314         115.073         118.458         119.057         121.888         129.640         132.944         135.312         136.362         141.867         142.056         144.611         146.422         148.342         152.227         158.744         163.319         164.136         166.670         171.872         172.823         174.040
   66          23.435          28.376          34.403          47.029          49.985          56.773          58.229          68.998          73.490          74.919          80.135          81.299          84.395          86.950          87.628          92.143          93.926          94.629          94.815          96.434          97.672         100.484         104.315         104.777         106.682         107.003         108.273         115.111         118.560         119.253         121.819         129.560         133.060         135.443         136.458         141.995         142.276         144.779         146.479         148.233         152.421         158.715         163.206         164.022         166.658         171.774         172.820         173.995
   67          22.783          27.594          33.601          46.813          50.200          56.504          58.004          68.986          73.633          74.948          80.079          81.276          84.418          86.989          87.425          92.036          93.848          94.576          94.895          96.588          97.570         100.619         104.323         104.756         106.800         106.969         108.232         115.141         118.664         119.455         121.754         129.481         133.167         135.577         136.544         142.120         142.494         144.938         146.535         148.127         152.619         158.686         163.095         163.905         166.645         171.677         172.818         173.950
   68          22.129          26.809          32.776          46.622          50.417          56.240          57.780          68.979          73.765          74.987          80.015          81.257          84.423          87.012          87.231          91.940          93.753          94.554          94.980          96.740          97.465         100.750         104.327         104.733         106.915         106.944         108.192         115.162         118.769         119.662         121.692         129.404         133.263         135.714         136.621         142.242         142.711         145.085         146.590         148.025         152.821         158.656         162.986         163.788         166.632         171.581         172.815         173.907
   69          21.473          26.021          31.928          46.454          50.637          55.982          57.556          68.977          73.883          75.035          79.944          81.241          84.409          87.018          87.047          91.859          93.645          94.558          95.068          96.888          97.358         100.876         104.328         104.708         106.928         107.026         108.155         115.175         118.875         119.874         121.633         129.331         133.350         135.854         136.686         142.361         142.926         145.221         146.645         147.929         153.026         158.626         162.879         163.670         166.619         171.484         172.812         173.864
   70          20.817          25.231          31.060          46.308          50.858          55.730          57.333          68.981          73.988          75.093          79.864          81.228          84.378          86.874          87.005          91.796          93.531          94.582          95.156          97.033          97.250         100.997         104.325         104.681         106.922         107.132         108.120         115.181         118.983         120.088         121.578         129.261         133.427         135.996         136.741         142.478         143.139         145.345         146.698         147.838         153.233         158.596         162.775         163.551         166.605         171.389         172.810         173.822
   71          20.159          24.439          30.174          46.181          51.079          55.486          57.111          68.990          74.079          75.162          79.775          81.218          84.329          86.714          86.974          91.753          93.414          94.621          95.244          97.143          97.173         101.111         104.317         104.653         106.925         107.231         108.091         115.181         119.092         120.304         121.526         129.196         133.496         136.139         136.785         142.593         143.350         145.456         146.751         147.756         153.441         158.565         162.673         163.432         166.591         171.294         172.807         173.780
   72          19.499          23.645          29.271          46.072          51.298          55.252          56.890          69.005          74.157          75.239          79.675          81.212          84.264          86.567          86.924          91.729          93.298          94.673          95.331          97.035          97.308         101.218         104.304         104.624         106.938         107.322         108.067         115.174         119.202         120.520         121.477         129.137         133.556         136.283         136.818         142.706         143.559         145.554         146.802         147.682         153.649         158.534         162.573         163.312         166.576         171.200         172.804         173.740
   73          18.838          22.848          28.354          45.979          51.514          55.028          56.671          69.026          74.223          75.324          79.563          81.209          84.184          86.434          86.857          91.726          93.184          94.734          95.416          96.929          97.437         101.317         104.287         104.595         106.961         107.401         108.054         115.162         119.312         120.734         121.431         129.084         133.609         136.428         136.839         142.816         143.764         145.637         146.853         147.619         153.857         158.503         162.475         163.192         166.561         171.107         172.801         173.700
   74          18.176          22.050          27.424          45.900          51.723          54.817          56.453          69.052          74.279          75.414          79.439          81.209          84.093          86.313          86.773          91.741          93.073          94.805          95.500          96.823          97.560         101.407         104.266         104.566         106.993         107.465         108.054         115.144         119.422         120.946         121.389         129.038         133.655         136.572         136.848         142.924         143.967         145.707         146.902         147.566         154.065         158.472         162.380         163.073         166.545         171.015         172.798         173.661
   75          17.513          21.249          26.482          45.835          51.922          54.623          56.238          69.085          74.327          75.506          79.302          81.214          83.994          86.203          86.675          91.775          92.966          94.882          95.581          96.719          97.676         101.488         104.242         104.537         107.036         107.510         108.070         115.120         119.533         121.154         121.349         129.001         133.694         136.715         136.846         143.030         144.166         145.761         146.950         147.526         154.272         158.440         162.288         162.954         166.529         170.925         172.795         173.624
   76          16.849          20.447          25.529          45.783          52.105          54.452          56.025          69.123          74.369          75.601          79.152          81.222          83.889          86.102          86.563          91.825          92.863          94.967          95.659          96.617          97.786         101.560         104.213         104.509         107.087         107.535         108.103         115.093         119.643         121.313         121.356         128.973         133.727         136.832         136.857         143.134         144.362         145.801         146.997         147.498         154.477         158.409         162.198         162.835         166.513         170.836         172.792         173.587
   77          16.183          19.643          24.566          45.742          52.263          54.310          55.815          69.168          74.406          75.694          78.987          81.235          83.784          86.009          86.440          91.889          92.765          95.057          95.734          96.517          97.888         101.621         104.182         104.484         107.147         107.544         108.152         115.060         119.751         121.280         121.552         128.955         133.754         136.806         136.997         143.235         144.554         145.826         147.042         147.482         154.679         158.378         162.111         162.718         166.496         170.748         172.788         173.552
   78          15.517          18.837          23.595          45.711          52.387          54.209          55.608          69.219          74.439          75.786          78.808          81.252          83.679          85.922          86.307          91.966          92.672          95.151          95.807          96.419          97.984         101.671         104.148         104.461         107.214         107.540         108.210         115.024         119.859         121.250         121.740         128.949         133.776         136.768         137.134         143.334         144.742         145.838         147.086         147.477         154.879         158.347         162.027         162.601         166.479         170.663         172.785         173.518
   79          14.849          18.030          22.615          45.690          52.464          54.160          55.405          69.277          74.469          75.874          78.614          81.273          83.578          85.840          86.168          92.053          92.583          95.250          95.876          96.324          98.072         101.710         104.112         104.441         107.289         107.528         108.275         114.984         119.965         121.224         121.919         128.954         133.794         136.719         137.269         143.431         144.925         145.839         147.129         147.483         155.075         158.317         161.946         162.487         166.461         170.579         172.782         173.485
   80          14.181          17.221          21.628          45.678          52.486          54.170          55.205          69.342          74.497          75.959          78.407          81.298          83.483          85.761          86.022          92.150          92.498          95.353          95.942          96.232          98.152         101.738         104.074         104.425         107.371         107.511         108.343         114.940         120.069         121.200         122.088         128.973         133.808         136.658         137.400         143.525         145.104         145.830         147.170         147.496         155.267         158.287         161.868         162.374         166.444         170.497         172.779         173.453
   81          13.511          16.410          20.635          45.673          52.456          54.236          55.009          69.414          74.523          76.039          78.186          81.328          83.395          85.685          85.872          92.254          92.419          95.458          96.005          96.143          98.225         101.754         104.035         104.413         107.458         107.491         108.411         114.893         120.169         121.180         122.246         129.005         133.818         136.587         137.527         143.617         145.278         145.813         147.210         147.517         155.455         158.257         161.793         162.263         166.426         170.417         172.775         173.423
   82          12.841          15.598          19.635          45.675          52.386          54.346          54.818          69.494          74.548          76.115          77.952          81.363          83.314          85.612          85.719          92.343          92.364          95.565          96.047          96.074          98.290         101.760         103.996         104.405         107.470         107.551         108.479         114.843         120.266         121.164         122.392         129.051         133.824         136.505         137.651         143.707         145.446         145.791         147.248         147.543         155.638         158.227         161.721         162.155         166.408         170.340         172.772         173.394
   83          12.170          14.785          18.630          45.684          52.289          54.486          54.631          69.581          74.571          76.185          77.707          81.402          83.241          85.541          85.564          92.272          92.478          95.675          95.971          96.124          98.347         101.754         103.957         104.401         107.449         107.647         108.545         114.790         120.359         121.152         122.526         129.111         133.828         136.413         137.769         143.793         145.608         145.764         147.285         147.572         155.815         158.198         161.652         162.050         166.389         170.265         172.769         173.367
   84          11.498          13.971          17.619          45.698          52.177          54.451          54.643          69.677          74.594          76.251          77.452          81.446          83.176          85.409          85.471          92.205          92.595          95.785          95.892          96.177          98.396         101.739         103.918         104.402         107.428         107.747         108.608         114.735         120.446         121.145         122.647         129.186         133.829         136.311         137.883         143.877         145.734         145.765         147.320         147.603         155.987         158.170         161.586         161.948         166.371         170.193         172.765         173.341
   85          10.825          13.155          16.604          45.717          52.057          54.275          54.810          69.780          74.615          76.311          77.187          81.494          83.119          85.253          85.404          92.142          92.713          95.817          95.896          96.227          98.438         101.714         103.879         104.406         107.408         107.849         108.669         114.678         120.525         121.143         122.756         129.274         133.828         136.200         137.992         143.958         145.703         145.915         147.354         147.635         156.152         158.143         161.523         161.849         166.353         170.124         172.762         173.316
   86          10.152          12.338          15.585          45.740          51.936          54.107          54.979          69.892          74.636          76.366          76.915          81.547          83.069          85.098          85.338          92.084          92.832          95.745          96.006          96.274          98.472         101.682         103.842         104.413         107.389         107.953         108.726         114.620         120.597         121.148         122.852         129.376         133.825         136.081         138.096         144.036         145.670         146.058         147.386         147.667         156.311         158.116         161.464         161.754         166.334         170.058         172.758         173.293
   87           9.478          11.520          14.562          45.767          51.816          53.945          55.148          70.013          74.655          76.415          76.636          81.604          83.026          84.944          85.275          92.030          92.951          95.676          96.116          96.317          98.499         101.642         103.806         104.423         107.371         108.057         108.780         114.560         120.658         121.160         122.937         129.489         133.820         135.954         138.194         144.111         145.638         146.194         147.417         147.699         156.462         158.091         161.409         161.663         166.316         169.996         172.755         173.271
   88           8.804          10.702          13.535          45.796          51.700          53.790          55.313          70.142          74.674          76.352          76.460          81.665          82.990          84.792          85.214          91.979          93.068          95.612          96.224          96.358          98.519         101.598         103.771         104.435         107.354         108.161         108.831         114.500         120.707         121.181         123.010         129.614         133.815         135.821         138.287         144.183         145.605         146.322         147.446         147.730         156.605         158.066         161.356         161.577         166.299         169.936         172.751         173.251
   89           8.129           9.882          12.505          45.827          51.589          53.643          55.472          70.281          74.691          76.064          76.500          81.730          82.959          84.643          85.155          91.933          93.182          95.552          96.331          96.396          98.533         101.549         103.738         104.449         107.338         108.264         108.878         114.440         120.746         121.211         123.072         129.749         133.808         135.682         138.373         144.251         145.574         146.442         147.473         147.759         156.740         158.043         161.308         161.496         166.281         169.881         172.748         173.233
   90           7.453           9.061          11.473          45.860          51.485          53.505          55.623          70.429          74.708          75.774          76.536          81.799          82.934          84.496          85.099          91.890          93.292          95.496          96.430          96.435          98.540         101.497         103.708         104.464         107.324         108.364         108.921         114.381         120.774         121.247         123.125         129.891         133.801         135.539         138.453         144.316         145.543         146.554         147.498         147.787         156.866         158.020         161.262         161.420         166.265         169.829         172.744         173.216
   91           6.777           8.240          10.438          45.892          51.388          53.376          55.766          70.587          74.723          75.481          76.567          81.871          82.914          84.353          85.047          91.851          93.397          95.445          96.462          96.536          98.541         101.444         103.679         104.479         107.311         108.460         108.961         114.323         120.793         121.288         123.169         130.039         133.793         135.393         138.527         144.377         145.513         146.657         147.523         147.813         156.983         158.000         161.221         161.349         166.249         169.781         172.741         173.201
   92           6.100           7.418           9.400          45.925          51.299          53.257          55.897          70.754          74.737          75.189          76.595          81.946          82.897          84.214          84.997          91.816          93.496          95.397          96.490          96.632          98.538         101.390         103.653         104.495         107.299         108.552         108.997         114.268         120.806         121.330         123.206         130.190         133.785         135.247         138.594         144.434         145.485         146.751         147.545         147.837         157.090         157.980         161.183         161.284         166.234         169.738         172.738         173.187
   93           5.424           6.595           8.361          45.957          51.218          53.148          56.018          70.931          74.750          74.897          76.618          82.023          82.884          84.079          84.952          91.785          93.589          95.355          96.516          96.723          98.529         101.338         103.629         104.510         107.289         108.639         109.029         114.215         120.815         121.372         123.236         130.342         133.778         135.101         138.655         144.486         145.458         146.835         147.566         147.858         157.188         157.963         161.149         161.225         166.220         169.698         172.735         173.174
   94           4.746           5.772           7.319          45.987          51.146          53.050          56.126          71.117          74.606          74.762          76.638          82.102          82.874          83.949          84.912          91.757          93.673          95.317          96.538          96.809          98.518         101.289         103.608         104.524         107.280         108.718         109.057         114.165         120.820         121.412         123.260         130.491         133.770         134.958         138.708         144.535         145.433         146.910         147.584         147.877         157.274         157.947         161.119         161.172         166.207         169.663         172.732         173.164
   95           4.069           4.948           6.277          46.014          51.084          52.964          56.221          71.313          74.318          74.772          76.655          82.181          82.866          83.826          84.875          91.734          93.749          95.283          96.558          96.887          98.504         101.244         103.590         104.536         107.272         108.790         109.082         114.120         120.824         121.449         123.279         130.635         133.764         134.821         138.755         144.578         145.409         146.975         147.601         147.894         157.351         157.933         161.092         161.126         166.195         169.632         172.730         173.154
   96           3.391           4.124           5.232          46.039          51.030          52.890          56.303          71.519          74.034          74.781          76.669          82.260          82.861          83.710          84.844          91.713          93.815          95.255          96.574          96.957          98.488         101.203         103.574         104.548         107.265         108.853         109.103         114.080         120.826         121.481         123.294         130.769         133.758         134.694         138.795         144.617         145.388         147.030         147.616         147.908         157.416         157.921         161.070         161.087         166.186         169.606         172.728         173.146
   97           2.713           3.300           4.187          46.059          50.986          52.828          56.371          71.733          73.754          74.788          76.680          82.336          82.857          83.604          84.818          91.697          93.870          95.231          96.588          97.016          98.473         101.168         103.561         104.557         107.260         108.905         109.120         114.047         120.827         121.509         123.305         130.888         133.752         134.581         138.828         144.649         145.370         147.074         147.629         147.919         157.470         157.911         161.051         161.054         166.177         169.585         172.726         173.140
   98           2.035           2.475           3.141          46.076          50.952          52.780          56.424          71.956          73.479          74.793          76.689          82.405          82.854          83.511          84.797          91.684          93.913          95.212          96.599          97.065          98.459         101.141         103.551         104.565         107.256         108.948         109.133         114.020         120.828         121.530         123.313         130.989         133.748         134.486         138.853         144.675         145.355         147.109         147.640         147.928         157.512         157.903         161.029         161.037         166.171         169.568         172.725         173.135
   99           1.357           1.650           2.094          46.089          50.927          52.745          56.462          72.188          73.210          74.797          76.695          82.463          82.852          83.436          84.782          91.675          93.945          95.199          96.606          97.101          98.447         101.120         103.544         104.570         107.253         108.978         109.142         114.000         120.828         121.546         123.319         131.065         133.745         134.413         138.871         144.695         145.344         147.134         147.647         147.935         157.542         157.897         161.011         161.027         166.166         169.556         172.724         173.132
  100           0.678           0.825           1.047          46.096          50.913          52.724          56.485          72.423          72.952          74.800          76.698          82.503          82.851          83.386          84.773          91.670          93.965          95.191          96.611          97.124          98.440         101.108         103.540         104.573         107.251         108.997         109.148         113.988         120.829         121.556         123.322         131.114         133.743         134.367         138.882         144.707         145.337         147.148         147.652         147.939         157.560         157.894         161.000         161.021         166.163         169.548         172.723         173.130
  101           0.000           0.000           0.000          46.099          50.908          52.717          56.493          72.608          72.761          74.801          76.700          82.517          82.851          83.369          84.770          91.668          93.971          95.188          96.612          97.131          98.437         101.103         103.538         104.575         107.251         109.003         109.150         113.984         120.829         121.559         123.323         131.130         133.743         134.352         138.886         144.711         145.334         147.153         147.653         147.940         157.566         157.893         160.996         161.018         166.162         169.546         172.723         173.129
  102           0.711           0.736           1.138          46.076          50.789          52.830          56.507          72.552          72.762          74.805          76.730          82.430          82.944          83.364          84.774          91.665          93.970          95.189          96.605          97.141          98.435         101.106         103.522         104.590         107.245         109.008         109.150         113.980         120.834         121.561         123.326         131.127         133.742         134.352         138.887         144.703         145.330         147.152         147.661         147.943         157.565         157.895         160.959         161.057         166.161         169.544         172.723         173.129
  103           1.422           1.471           2.275          46.007          50.492          53.107          56.549          72.393          72.766          74.814          76.818          82.271          83.119          83.351          84.786          91.655          93.968          95.190          96.586          97.168          98.429         101.115         103.476         104.634         107.227         109.021         109.149         113.969         120.851         121.566         123.335         131.116         133.738         134.351         138.891         144.682         145.319         147.148         147.682         147.953         157.562         157.901         160.915         161.106         166.158         169.537         172.723         173.131
  104           2.133           2.206           3.412          45.895          50.104          53.463          56.618          72.144          72.773          74.825          76.952          82.103          83.316          83.329          84.806          91.640          93.965          95.192          96.557          97.210          98.419         101.129         103.408         104.700         107.198         109.043         109.147         113.951         120.879         121.575         123.349         131.100         133.733         134.350         138.897         144.646         145.299         147.141         147.717         147.969         157.557         157.911         160.872         161.158         166.154         169.526         172.724         173.134
  105           2.844           2.941           4.548          45.740          49.669          53.852          56.712          71.825          72.783          74.834          77.118          81.938          83.300          83.522          84.832          91.619          93.960          95.195          96.524          97.263          98.405         101.149         103.323         104.780         107.160         109.073         109.144         113.926         120.918         121.588         123.369         131.077         133.725         134.349         138.906         144.598         145.272         147.133         147.765         147.990         157.549         157.925         160.831         161.211         166.147         169.510         172.725         173.138
  106           3.554           3.676           5.684          45.545          49.208          54.254          56.829          71.450          72.796          74.838          77.301          81.780          83.264          83.733          84.864          91.592          93.954          95.199          96.488          97.323          98.387         101.174         103.228         104.870         107.114         109.108         109.141         113.894         120.968         121.603         123.395         131.047         133.714         134.347         138.917         144.539         145.239         147.122         147.824         148.016         157.540         157.942         160.791         161.267         166.139         169.490         172.726         173.143
  107           4.264           4.410           6.818          45.312          48.729          54.660          56.965          71.031          72.811          74.837          77.490          81.633          83.223          83.949          84.901          91.560          93.945          95.203          96.452          97.389          98.365         101.203         103.126         104.963         107.063         109.137         109.149         113.855         121.028         121.623         123.427         131.012         133.701         134.345         138.931         144.469         145.199         147.110         147.893         148.047         157.529         157.964         160.752         161.325         166.129         169.466         172.727         173.149
  108           4.973           5.143           7.952          45.046          48.238          55.063          57.118          70.577          72.829          74.831          77.675          81.500          83.176          84.168          84.942          91.523          93.935          95.208          96.416          97.459          98.341         101.238         103.020         105.057         107.007         109.133         109.193         113.810         121.099         121.645         123.464         130.971         133.684         134.342         138.947         144.391         145.153         147.097         147.971         148.080         157.516         157.989         160.714         161.384         166.117         169.437         172.728         173.157
  109           5.682           5.876           9.084          44.748          47.737          55.462          57.285          70.094          72.849          74.821          77.847          81.382          83.126          84.389          84.986          91.481          93.922          95.214          96.383          97.533          98.313         101.277         102.912         105.150         106.949         109.127         109.239         113.759         121.180         121.669         123.507         130.924         133.664         134.339         138.965         144.305         145.103         147.082         148.055         148.117         157.501         158.017         160.678         161.446         166.104         169.405         172.730         173.165
  110           6.390           6.608          10.214          44.422          47.227          55.853          57.463          69.587          72.872          74.806          78.000          81.284          83.072          84.611          85.032          91.435          93.906          95.221          96.352          97.608          98.284         101.320         102.803         105.238         106.892         109.121         109.287         113.702         121.270         121.697         123.556         130.872         133.640         134.336         138.986         144.213         145.048         147.067         148.146         148.155         157.484         158.049         160.642         161.510         166.089         169.369         172.732         173.173
  111           7.098           7.339          11.343          44.070          46.710          56.234          57.650          69.062          72.898          74.788          78.128          81.209          83.015          84.835          85.081          91.386          93.887          95.228          96.325          97.685          98.251         101.366         102.695         105.318         106.838         109.114         109.336         113.639         121.369         121.727         123.610         130.816         133.612         134.333         139.010         144.116         144.989         147.051         148.195         148.242         157.465         158.084         160.608         161.576         166.072         169.329         172.734         173.183
  112           7.805           8.069          12.470          43.694          46.185          56.603          57.843          68.522          72.926          74.764          78.226          81.161          82.956          85.059          85.131          91.333          93.866          95.237          96.300          97.764          98.217         101.416         102.588         105.388         106.791         109.107         109.385         113.572         121.477         121.758         123.670         130.756         133.579         134.329         139.036         144.014         144.927         147.035         148.237         148.341         157.444         158.122         160.574         161.644         166.054         169.286         172.736         173.193
  113           8.510           8.798          13.595          43.297          45.655          56.956          58.040          67.970          72.956          74.736          78.292          81.141          82.896          85.181          85.282          91.278          93.841          95.245          96.279          97.843          98.181         101.469         102.482         105.444         106.754         109.098         109.433         113.500         121.593         121.792         123.735         130.692         133.542         134.325         139.064         143.909         144.863         147.019         148.278         148.444         157.422         158.162         160.542         161.715         166.035         169.239         172.738         173.204
  114           9.215           9.525          14.717          42.881          45.118          57.291          58.239          67.413          72.988          74.703          78.325          81.149          82.835          85.232          85.505          91.221          93.813          95.255          96.261          97.923          98.144         101.525         102.378         105.484         106.729         109.089         109.480         113.424         121.716         121.827         123.806         130.624         133.500         134.321         139.094         143.801         144.798         147.002         148.320         148.548         157.399         158.205         160.509         161.787         166.013         169.190         172.740         173.215
  115           9.919          10.251          15.837          42.447          44.576          57.602          58.439          66.856          73.023          74.665          78.326          81.185          82.773          85.283          85.725          91.163          93.781          95.265          96.247          98.002          98.106         101.583         102.276         105.505         106.721         109.080         109.526         113.344         121.846         121.863         123.882         130.553         133.452         134.317         139.127         143.691         144.731         146.985         148.362         148.655         157.374         158.250         160.478         161.861         165.991         169.137         172.743         173.227
  116          10.622          10.976          16.954          41.997          44.028          57.883          58.637          66.305          73.059          74.621          78.300          81.244          82.710          85.334          85.943          91.103          93.746          95.275          96.236          98.066          98.082         101.643         102.177         105.506         106.729         109.069         109.571         113.261         121.900         121.982         123.963         130.481         133.399         134.312         139.162         143.580         144.664         146.968         148.404         148.762         157.347         158.297         160.447         161.937         165.967         169.082         172.745         173.238
  117          11.323          11.699          18.068          41.532          43.475          58.124          58.834          65.770          73.097          74.571          78.252          81.323          82.647          85.384          86.157          91.044          93.707          95.286          96.228          98.027          98.161         101.705         102.080         105.487         106.754         109.057         109.613         113.175         121.938         122.123         124.050         130.406         133.340         134.307         139.200         143.467         144.596         146.951         148.444         148.869         157.320         158.346         160.416         162.015         165.942         169.025         172.747         173.251
  118          12.023          12.421          19.179          41.053          42.916          58.315          59.027          65.265          73.136          74.514          78.186          81.416          82.585          85.434          86.367          90.985          93.665          95.297          96.223          97.987          98.239         101.768         101.987         105.452         106.793         109.045         109.654         113.087         121.977         122.268         124.142         130.330         133.274         134.303         139.239         143.353         144.529         146.933         148.484         148.976         157.291         158.397         160.386         162.094         165.916         168.966         172.750         173.263
  119          12.721          13.140          20.287          40.562          42.353          58.438          59.216          64.806          73.177          74.451          78.108          81.520          82.523          85.482          86.571          90.928          93.620          95.309          96.221          97.946          98.316         101.832         101.897         105.404         106.843         109.032         109.692         112.997         122.015         122.417         124.238         130.253         133.203         134.298         139.281         143.239         144.463         146.916         148.523         149.082         157.261         158.449         160.356         162.175         165.889         168.905         172.753         173.275
  120          13.418          13.858          21.391          40.059          41.785          58.474          59.400          64.412          73.219          74.380          78.021          81.631          82.461          85.530          86.769          90.873          93.572          95.321          96.222          97.906          98.391         101.810         101.896         105.346         106.901         109.019         109.729         112.906         122.054         122.568         124.339         130.177         133.125         134.293         139.325         143.124         144.398         146.899         148.561         149.187         157.231         158.502         160.327         162.257         165.861         168.842         172.755         173.287
  121          14.114          14.573          22.491          39.546          41.212          58.402          59.578          64.104          73.262          74.300          77.930          81.746          82.401          85.576          86.961          90.821          93.520          95.334          96.225          97.866          98.466         101.726         101.962         105.280         106.965         109.005         109.763         112.814         122.092         122.721         124.445         130.100         133.040         134.288         139.371         143.010         144.334         146.883         148.597         149.291         157.200         158.556         160.297         162.340         165.832         168.778         172.758         173.299
  122          14.807          15.286          23.587          39.022          40.635          58.209          59.749          63.897          73.305          74.213          77.838          81.863          82.342          85.620          87.144          90.773          93.466          95.346          96.230          97.827          98.538         101.646         102.027         105.210         107.031         108.990         109.795         112.722         122.130         122.874         124.554         130.026         132.949         134.283         139.419         142.896         144.273         146.866         148.632         149.392         157.168         158.610         160.267         162.424         165.802         168.714         172.760         173.310
  123          15.499          15.997          24.678          38.489          40.054          57.891          59.914          63.795          73.349          74.118          77.746          81.980          82.284          85.663          87.318          90.730          93.408          95.359          96.237          97.789          98.608         101.569         102.092         105.137         107.100         108.974         109.825         112.630         122.167         123.027         124.667         129.953         132.851         134.278         139.469         142.783         144.213         146.850         148.666         149.491         157.137         158.666         160.238         162.509         165.772         168.649         172.763         173.322
  124          16.188          16.705          25.765          37.948          39.468          57.458          60.071          63.786          73.392          74.014          77.657          82.096          82.228          85.704          87.481          90.694          93.348          95.371          96.245          97.751          98.676         101.496         102.156         105.063         107.168         108.958         109.853         112.539         122.203         123.179         124.782         129.884         132.747         134.274         139.521         142.670         144.156         146.834         148.698         149.588         157.105         158.721         160.208         162.594         165.741         168.584         172.765         173.333
  125          16.876          17.410          26.846          37.398          38.879          56.928          60.220          63.853          73.436          73.902          77.572          82.173          82.210          85.743          87.633          90.666          93.286          95.384          96.255          97.714          98.741         101.426         102.219         104.988         107.236         108.941         109.879         112.450         122.238         123.329         124.900         129.819         132.637         134.269         139.575         142.559         144.102         146.819         148.728         149.681         157.073         158.777         160.178         162.679         165.709         168.519         172.768         173.344
  126          17.561          18.111          27.922          36.841          38.287          56.320          60.362          63.977          73.479          73.783          77.492          82.120          82.321          85.781          87.772          90.646          93.221          95.397          96.265          97.679          98.804         101.361         102.281         104.915         107.303         108.924         109.903         112.362         122.272         123.476         125.017         129.759         132.520         134.265         139.631         142.449         144.050         146.805         148.757         149.771         157.042         158.833         160.148         162.764         165.677         168.455         172.770         173.354
  127          18.243          18.810          28.993          36.277          37.691          55.651          60.495          64.140          73.522          73.656          77.418          82.070          82.428          85.816          87.897          90.637          93.154          95.409          96.277          97.645          98.863         101.299         102.341         104.843         107.368         108.906         109.925         112.277         122.304         123.620         125.135         129.706         132.397         134.260         139.688         142.340         144.002         146.790         148.784         149.857         157.011         158.889         160.117         162.848         165.645         168.392         172.772         173.364
  128          18.923          19.505          30.056          35.706          37.094          54.935          60.619          64.329          73.524          73.563          77.350          82.022          82.530          85.849          88.007          90.638          93.086          95.421          96.289          97.612          98.920         101.240         102.400         104.774         107.431         108.888         109.945         112.195         122.335         123.759         125.250         129.662         132.269         134.256         139.747         142.233         143.956         146.777         148.809         149.939         156.980         158.944         160.086         162.930         165.612         168.330         172.775         173.373
  129          19.600          20.195          31.112          35.130          36.495          54.180          60.734          64.535          73.387          73.603          77.287          81.977          82.627          85.880          88.103          90.651          93.015          95.433          96.302          97.581          98.973         101.186         102.456         104.708         107.491         108.870         109.963         112.116         122.364         123.894         125.361         129.626         132.135         134.252         139.807         142.127         143.914         146.764         148.832         150.016         156.951         158.999         160.054         163.012         165.580         168.270         172.777         173.382
  130          20.273          20.881          32.158          34.548          35.898          53.395          60.841          64.748          73.247          73.641          77.232          81.934          82.719          85.909          88.183          90.675          92.944          95.444          96.314          97.552          99.022         101.135         102.509         104.645         107.548         108.852         109.980         112.041         122.391         124.024         125.466         129.602         131.996         134.248         139.869         142.024         143.875         146.752         148.853         150.089         156.923         159.054         160.022         163.091         165.548         168.213         172.779         173.390
  131          20.943          21.561          33.183          33.961          35.314          52.584          60.939          64.964          73.106          73.677          77.182          81.895          82.804          85.936          88.249          90.711          92.871          95.455          96.327          97.525          99.068         101.089         102.559         104.586         107.602         108.834         109.994         111.971         122.416         124.148         125.564         129.591         131.853         134.245         139.932         141.924         143.839         146.741         148.873         150.156         156.897         159.107         159.989         163.167         165.516         168.158         172.780         173.398
  132          21.608          22.235          33.370          34.088          34.840          51.752          61.027          65.176          72.965          73.710          77.138          81.858          82.884          85.960          88.301          90.756          92.798          95.465          96.339          97.500          99.110         101.047         102.605         104.532         107.652         108.816         110.008         111.905         122.439         124.265         125.653         129.593         131.707         134.242         139.995         141.826         143.807         146.731         148.891         150.218         156.872         159.160         159.955         163.239         165.485         168.107         172.782         173.405
  133          22.269          22.900          32.775          33.971          35.383          50.901          61.106          65.380          72.828          73.741          77.099          81.825          82.956          85.981          88.341          90.809          92.725          95.474          96.350          97.477          99.148         101.008         102.648         104.483         107.698         108.799         110.019         111.845         122.460         124.375         125.731         129.610         131.557         134.239         140.058         141.731         143.778         146.722         148.907         150.275         156.849         159.212         159.921         163.308         165.455         168.060         172.784         173.411
  134          22.923          23.556          32.179          33.410          36.362          50.036          61.176          65.574          72.695          73.769          77.066          81.795          83.021          86.001          88.370          90.868          92.653          95.483          96.361          97.456          99.182         100.974         102.687         104.438         107.740         108.783         110.030         111.791         122.479         124.477         125.798         129.644         131.405         134.236         140.121         141.640         143.752         146.714         148.921         150.325         156.828         159.263         159.886         163.371         165.427         168.017         172.785         173.417
  135          23.570          24.199          31.582          32.826          37.361          49.158          61.237          65.751          72.571          73.794          77.038          81.769          83.078          86.017          88.391          90.930          92.584          95.490          96.371          97.438          99.211         100.945         102.721         104.399         107.777         108.768         110.038         111.744         122.495         124.570         125.853         129.693         131.252         134.234         140.183         141.555         143.730         146.707         148.933         150.370         156.810         159.313         159.851         163.429         165.401         167.979         172.786         173.421
  136          24.207          24.823          30.988          32.246          38.354          48.271          61.289          65.910          72.459          73.816          77.015          81.747          83.128          86.032          88.406          90.992          92.518          95.497          96.379          97.423          99.237         100.919         102.750         104.366         107.810         108.754         110.046         111.702         122.509         124.652         125.896         129.758         131.099         134.232         140.243         141.475         143.711         146.700         148.944         150.408         156.794         159.361         159.815         163.480         165.377         167.945         172.787         173.425
  137          24.828          25.420          30.401          31.684          39.331          47.380          61.331          66.047          72.361          73.834          76.997          81.729          83.168          86.043          88.415          91.051          92.458          95.502          96.387          97.410          99.257         100.899         102.775         104.338         107.837         108.742         110.052         111.668         122.520         124.722         125.928         129.837         130.948         134.230         140.298         141.403         143.696         146.695         148.952         150.439         156.781         159.408         159.778         163.523         165.357         167.918         172.788         173.429
  138          25.423          25.973          29.833          31.157          40.284          46.495          61.364          66.157          72.281          73.848          76.982          81.714          83.200          86.052          88.421          91.103          92.406          95.506          96.393          97.400          99.274         100.882         102.794         104.317         107.859         108.732         110.056         111.642         122.529         124.779         125.951         129.927         130.802         134.229         140.346         141.342         143.684         146.691         148.959         150.464         156.770         159.452         159.742         163.558         165.340         167.896         172.789         173.432
  139          25.969          26.451          29.306          30.698          41.189          45.638          61.387          66.238          72.221          73.858          76.972          81.704          83.223          86.059          88.424          91.144          92.366          95.510          96.397          97.393          99.285         100.871         102.808         104.301         107.875         108.725         110.060         111.622         122.536         124.821         125.966         130.024         130.666         134.228         140.385         141.294         143.676         146.689         148.964         150.481         156.763         159.492         159.707         163.584         165.328         167.880         172.789         173.433
  140          26.404          26.796          28.883          30.364          41.969          44.887          61.401          66.288          72.184          73.864          76.966          81.698          83.237          86.063          88.426          91.171          92.340          95.511          96.399          97.389          99.292         100.864         102.816         104.292         107.885         108.720         110.062         111.611         122.540         124.847         125.974         130.114         130.552         134.227         140.410         141.263         143.670         146.687         148.966         150.492         156.758         159.525         159.678         163.599         165.320         167.870         172.790         173.435
  141          26.586          26.926          28.704          30.237          42.343          44.523          61.406          66.305          72.172          73.866          76.964          81.695          83.242          86.064          88.426          91.180          92.331          95.512          96.400          97.387          99.294         100.861         102.819         104.289         107.888         108.719         110.062         111.607         122.541         124.856         125.977         130.158         130.500         134.227         140.419         141.252         143.669         146.686         148.967         150.495         156.756         159.539         159.665         163.604         165.317         167.867         172.790         173.435
  142          26.404          26.796          28.883          30.364          41.969          44.887          61.401          66.288          72.184          73.864          76.966          81.698          83.237          86.063          88.426          91.171          92.340          95.511          96.399          97.389          99.292         100.864         102.816         104.292         107.885         108.720         110.062         111.611         122.540         124.847         125.974         130.114         130.552         134.227         140.410         141.263         143.670         146.687         148.966         150.492         156.758         159.525         159.678         163.599         165.320         167.870         172.790         173.435
  143          25.969          26.451          29.306          30.698          41.189          45.638          61.387          66.238          72.221          73.858          76.972          81.704          83.223          86.059          88.424          91.144          92.366          95.510          96.397          97.393          99.285         100.871         102.808         104.301         107.875         108.725         110.060         111.622         122.536         124.821         125.966         130.024         130.666         134.228         140.385         141.294         143.676         146.689         148.964         150.481         156.763         159.492         159.707         163.584         165.328         167.880         172.789         173.433
  144          25.423          25.973          29.833          31.157          40.284          46.495          61.364          66.157          72.281          73.848          76.982          81.714          83.200          86.052          88.421          91.103          92.406          95.506          96.393          97.400          99.274         100.882         102.794         104.317         107.859         108.732         110.056         111.642         122.529         124.779         125.951         129.927         130.802         134.229         140.346         141.342         143.684         146.691         148.959         150.464         156.770         159.452         159.742         163.558         165.340         167.896         172.789         173.432
  145          24.828          25.420          30.401          31.684          39.331          47.380          61.331          66.047          72.361          73.834          76.997          81.729          83.168          86.043          88.415          91.051          92.458          95.502          96.387          97.410          99.257         100.899         102.775         104.338         107.837         108.742         110.052         111.668         122.520         124.722         125.928         129.837         130.948         134.230         140.298         141.403         143.696         146.695         148.952         150.439         156.781         159.408         159.778         163.523         165.357         167.918         172.788         173.429
  146          24.207          24.823          30.988          32.246          38.354          48.271          61.289          65.910          72.459          73.816          77.015          81.747          83.128          86.032          88.406          90.992          92.518          95.497          96.379          97.423          99.237         100.919         102.750         104.366         107.810         108.754         110.046         111.702         122.509         124.652         125.896         129.758         131.099         134.232         140.243         141.475         143.711         146.700         148.944         150.408         156.794         159.361         159.815         163.480         165.377         167.945         172.787         173.425
  147          23.570          24.199          31.582          32.826          37.361          49.158          61.237          65.751          72.571          73.794          77.038          81.769          83.078          86.017          88.391          90.930          92.584          95.490          96.371          97.438          99.211         100.945         102.721         104.399         107.777         108.768         110.038         111.744         122.495         124.570         125.853         129.693         131.252         134.234         140.183         141.555         143.730         146.707         148.933         150.370         156.810         159.313         159.851         163.429         165.401         167.979         172.786         173.421
  148          22.923          23.556          32.179          33.410          36.362          50.036          61.176          65.574          72.695          73.769          77.066          81.795          83.021          86.001          88.370          90.868          92.653          95.483          96.361          97.456          99.182         100.974         102.687         104.438         107.740         108.783         110.030         111.791         122.479         124.477         125.798         129.644         131.405         134.236         140.121         141.640         143.752         146.714         148.921         150.325         156.828         159.263         159.886         163.371         165.427         168.017         172.785         173.417
  149          22.269          22.900          32.775          33.971          35.383          50.901          61.106          65.380          72.828          73.741          77.099          81.825          82.956          85.981          88.341          90.809          92.725          95.474          96.350          97.477          99.148         101.008         102.648         104.483         107.698         108.799         110.019         111.845         122.460         124.375         125.731         129.610         131.557         134.239         140.058         141.731         143.778         146.722         148.907         150.275         156.849         159.212         159.921         163.308         165.455         168.060         172.784         173.411
  150          21.608          22.235          33.370          34.088          34.840          51.752          61.027          65.176          72.965          73.710          77.138          81.858          82.884          85.960          88.301          90.756          92.798          95.465          96.339          97.500          99.110         101.047         102.605         104.532         107.652         108.816         110.008         111.905         122.439         124.265         125.653         129.593         131.707         134.242         139.995         141.826         143.807         146.731         148.891         150.218         156.872         159.160         159.955         163.239         165.485         168.107         172.782         173.405
  151          20.943          21.561          33.183          33.961          35.314          52.584          60.939          64.964          73.106          73.677          77.182          81.895          82.804          85.936          88.249          90.711          92.871          95.455          96.327          97.525          99.068         101.089         102.559         104.586         107.602         108.834         109.994         111.971         122.416         124.148         125.564         129.591         131.853         134.245         139.932         141.924         143.839         146.741         148.873         150.156         156.897         159.107         159.989         163.167         165.516         168.158         172.780         173.398
  152          20.273          20.881          32.158          34.548          35.898          53.395          60.841          64.748          73.247          73.641          77.232          81.934          82.719          85.909          88.183          90.675          92.944          95.444          96.314          97.552          99.022         101.135         102.509         104.645         107.548         108.852         109.980         112.041         122.391         124.024         125.466         129.602         131.996         134.248         139.869         142.024         143.875         146.752         148.853         150.089         156.923         159.054         160.022         163.091         165.548         168.213         172.779         173.390
  153          19.600          20.195          31.112          35.130          36.495          54.180          60.734          64.535          73.387          73.603          77.287          81.977          82.627          85.880          88.103          90.651          93.015          95.433          96.302          97.581          98.973         101.186         102.456         104.708         107.491         108.870         109.963         112.116         122.364         123.894         125.361         129.626         132.135         134.252         139.807         142.127         143.914         146.764         148.832         150.016         156.951         158.999         160.054         163.012         165.580         168.270         172.777         173.382
  154          18.923          19.505          30.056          35.706          37.094          54.935          60.619          64.329          73.524          73.563          77.350          82.022          82.530          85.849          88.007          90.638          93.086          95.421          96.289          97.612          98.920         101.240         102.400         104.774         107.431         108.888         109.945         112.195         122.335         123.759         125.250         129.662         132.269         134.256         139.747         142.233         143.956         146.777         148.809         149.939         156.980         158.944         160.086         162.930         165.612         168.330         172.775         173.373
  155          18.243          18.810          28.993          36.277          37.691          55.651          60.495          64.140          73.522          73.656          77.418          82.070          82.428          85.816          87.897          90.637          93.154          95.409          96.277          97.645          98.863         101.299         102.341         104.843         107.368         108.906         109.925         112.277         122.304         123.620         125.135         129.706         132.397         134.260         139.688         142.340         144.002         146.790         148.784         149.857         157.011         158.889         160.117         162.848         165.645         168.392         172.772         173.364
  156          17.561          18.111          27.922          36.841          38.287          56.320          60.362          63.977          73.479          73.783          77.492          82.120          82.321          85.781          87.772          90.646          93.221          95.397          96.265          97.679          98.804         101.361         102.281         104.915         107.303         108.924         109.903         112.362         122.272         123.476         125.017         129.759         132.520         134.265         139.631         142.449         144.050         146.805         148.757         149.771         157.042         158.833         160.148         162.764         165.677         168.455         172.770         173.354
  157          16.876          17.410          26.846          37.398          38.879          56.928          60.220          63.853          73.436          73.902          77.572          82.173          82.210          85.743          87.633          90.666          93.286          95.384          96.255          97.714          98.741         101.426         102.219         104.988         107.236         108.941         109.879         112.450         122.238         123.329         124.900         129.819         132.637         134.269         139.575         142.559         144.102         146.819         148.728         149.681         157.073         158.777         160.178         162.679         165.709         168.519         172.768         173.344
  158          16.188          16.705          25.765          37.948          39.468          57.458          60.071          63.786          73.392          74.014          77.657          82.096          82.228          85.704          87.481          90.694          93.348          95.371          96.245          97.751          98.676         101.496         102.156         105.063         107.168         108.958         109.853         112.539         122.203         123.179         124.782         129.884         132.747         134.274         139.521         142.670         144.156         146.834         148.698         149.588         157.105         158.721         160.208         162.594         165.741         168.584         172.765         173.333
  159          15.499          15.997          24.678          38.489          40.054          57.891          59.914          63.795          73.349          74.118          77.746          81.980          82.284          85.663          87.318          90.730          93.408          95.359          96.237          97.789          98.608         101.569         102.092         105.137         107.100         108.974         109.825         112.630         122.167         123.027         124.667         129.953         132.851         134.278         139.469         142.783         144.213         146.850         148.666         149.491         157.137         158.666         160.238         162.509         165.772         168.649         172.763         173.322
  160          14.807          15.286          23.587          39.022          40.635          58.209          59.749          63.897          73.305          74.213          77.838          81.863          82.342          85.620          87.144          90.773          93.466          95.346          96.230          97.827          98.538         101.646         102.027         105.210         107.031         108.990         109.795         112.722         122.130         122.874         124.554         130.026         132.949         134.283         139.419         142.896         144.273         146.866         148.632         149.392         157.168         158.610         160.267         162.424         165.802         168.714         172.760         173.310
  161          14.114          14.573          22.491          39.546          41.212          58.402          59.578          64.104          73.262          74.300          77.930          81.746          82.401          85.576          86.961          90.821          93.520          95.334          96.225          97.866          98.466         101.726         101.962         105.280         106.965         109.005         109.763         112.814         122.092         122.721         124.445         130.100         133.040         134.288         139.371         143.010         144.334         146.883         148.597         149.291         157.200         158.556         160.297         162.340         165.832         168.778         172.758         173.299
  162          13.418          13.858          21.391          40.059          41.785          58.474          59.400          64.412          73.219          74.380          78.021          81.631          82.461          85.530          86.769          90.873          93.572          95.321          96.222          97.906          98.391         101.810         101.896         105.346         106.901         109.019         109.729         112.906         122.054         122.568         124.339         130.177         133.125         134.293         139.325         143.124         144.398         146.899         148.561         149.187         157.231         158.502         160.327         162.257         165.861         168.842         172.755         173.287
  163          12.721          13.140          20.287          40.562          42.353          58.438          59.216          64.806          73.177          74.451          78.108          81.520          82.523          85.482          86.571          90.928          93.620          95.309          96.221          97.946          98.316         101.832         101.897         105.404         106.843         109.032         109.692         112.997         122.015         122.417         124.238         130.253         133.203         134.298         139.281         143.239         144.463         146.916         148.523         149.082         157.261         158.449         160.356         162.175         165.889         168.905         172.753         173.275
  164          12.023          12.421          19.179          41.053          42.916          58.315          59.027          65.265          73.136          74.514          78.186          81.416          82.585          85.434          86.367          90.985          93.665          95.297          96.223          97.987          98.239         101.768         101.987         105.452         106.793         109.045         109.654         113.087         121.977         122.268         124.142         130.330         133.274         134.303         139.239         143.353         144.529         146.933         148.484         148.976         157.291         158.397         160.386         162.094         165.916         168.966         172.750         173.263
  165          11.323          11.699          18.068          41.532          43.475          58.124          58.834          65.770          73.097          74.571          78.252          81.323          82.647          85.384          86.157          91.044          93.707          95.286          96.228          98.027          98.161         101.705         102.080         105.487         106.754         109.057         109.613         113.175         121.938         122.123         124.050         130.406         133.340         134.307         139.200         143.467         144.596         146.951         148.444         148.869         157.320         158.346         160.416         162.015         165.942         169.025         172.747         173.251
  166          10.622          10.976          16.954          41.997          44.028          57.883          58.637          66.305          73.059          74.621          78.300          81.244          82.710          85.334          85.943          91.103          93.746          95.275          96.236          98.066          98.082         101.643         102.177         105.506         106.729         109.069         109.571         113.261         121.900         121.982         123.963         130.481         133.399         134.312         139.162         143.580         144.664         146.968         148.404         148.762         157.347         158.297         160.447         161.937         165.967         169.082         172.745         173.238
  167           9.919          10.251          15.837          42.447          44.576          57.602          58.439          66.856          73.023          74.665          78.326          81.185          82.773          85.283          85.725          91.163          93.781          95.265          96.247          98.002          98.106         101.583         102.276         105.505         106.721         109.080         109.526         113.344         121.846         121.863         123.882         130.553         133.452         134.317         139.127         143.691         144.731         146.985         148.362         148.655         157.374         158.250         160.478         161.861         165.991         169.137         172.743         173.227
  168           9.215           9.525          14.717          42.881          45.118          57.291          58.239          67.413          72.988          74.703          78.325          81.149          82.835          85.232          85.505          91.221          93.813          95.255          96.261          97.923          98.144         101.525         102.378         105.484         106.729         109.089         109.480         113.424         121.716         121.827         123.806         130.624         133.500         134.321         139.094         143.801         144.798         147.002         148.320         148.548         157.399         158.205         160.509         161.787         166.013         169.190         172.740         173.215
  169           8.510           8.798          13.595          43.297          45.655          56.956          58.040          67.970          72.956          74.736          78.292          81.141          82.896          85.181          85.282          91.278          93.841          95.245          96.279          97.843          98.181         101.469         102.482         105.444         106.754         109.098         109.433         113.500         121.593         121.792         123.735         130.692         133.542         134.325         139.064         143.909         144.863         147.019         148.278         148.444         157.422         158.162         160.542         161.715         166.035         169.239         172.738         173.204
  170           7.805           8.069          12.470          43.694          46.185          56.603          57.843          68.522          72.926          74.764          78.226          81.161          82.956          85.059          85.131          91.333          93.866          95.237          96.300          97.764          98.217         101.416         102.588         105.388         106.791         109.107         109.385         113.572         121.477         121.758         123.670         130.756         133.579         134.329         139.036         144.014         144.927         147.035         148.237         148.341         157.444         158.122         160.574         161.644         166.054         169.286         172.736         173.193
  171           7.098           7.339          11.343          44.070          46.710          56.234          57.650          69.062          72.898          74.788          78.128          81.209          83.015          84.835          85.081          91.386          93.887          95.228          96.325          97.685          98.251         101.366         102.695         105.318         106.838         109.114         109.336         113.639         121.369         121.727         123.610         130.816         133.612         134.333         139.010         144.116         144.989         147.051         148.195         148.242         157.465         158.084         160.608         161.576         166.072         169.329         172.734         173.183
  172           6.390           6.608          10.214          44.422          47.227          55.853          57.463          69.587          72.872          74.806          78.000          81.284          83.072          84.611          85.032          91.435          93.906          95.221          96.352          97.608          98.284         101.320         102.803         105.238         106.892         109.121         109.287         113.702         121.270         121.697         123.556         130.872         133.640         134.336         138.986         144.213         145.048         147.067         148.146         148.155         157.484         158.049         160.642         161.510         166.089         169.369         172.732         173.173
  173           5.682           5.876           9.084          44.748          47.737          55.462          57.285          70.094          72.849          74.821          77.847          81.382          83.126          84.389          84.986          91.481          93.922          95.214          96.383          97.533          98.313         101.277         102.912         105.150         106.949         109.127         109.239         113.759         121.180         121.669         123.507         130.924         133.664         134.339         138.965         144.305         145.103         147.082         148.055         148.117         157.501         158.017         160.678         161.446         166.104         169.405         172.730         173.165
  174           4.973           5.143           7.952          45.046          48.238          55.063          57.118          70.577          72.829          74.831          77.675          81.500          83.176          84.168          84.942          91.523          93.935          95.208          96.416          97.459          98.341         101.238         103.020         105.057         107.007         109.133         109.193         113.810         121.099         121.645         123.464         130.971         133.684         134.342         138.947         144.391         145.153         147.097         147.971         148.080         157.516         157.989         160.714         161.384         166.117         169.437         172.728         173.157
  175           4.264           4.410           6.818          45.312          48.729          54.660          56.965          71.031          72.811          74.837          77.490          81.633          83.223          83.949          84.901          91.560          93.945          95.203          96.452          97.389          98.365         101.203         103.126         104.963         107.063         109.137         109.149         113.855         121.028         121.623         123.427         131.012         133.701         134.345         138.931         144.469         145.199         147.110         147.893         148.047         157.529         157.964         160.752         161.325         166.129         169.466         172.727         173.149
  176           3.554           3.676           5.684          45.545          49.208          54.254          56.829          71.450          72.796          74.838          77.301          81.780          83.264          83.733          84.864          91.592          93.954          95.199          96.488          97.323          98.387         101.174         103.228         104.870         107.114         109.108         109.141         113.894         120.968         121.603         123.395         131.047         133.714         134.347         138.917         144.539         145.239         147.122         147.824         148.016         157.540         157.942         160.791         161.267         166.139         169.490         172.726         173.143
  177           2.844           2.941           4.548          45.740          49.669          53.852          56.712          71.825          72.783          74.834          77.118          81.938          83.300          83.522          84.832          91.619          93.960          95.195          96.524          97.263          98.405         101.149         103.323         104.780         107.160         109.073         109.144         113.926         120.918         121.588         123.369         131.077         133.725         134.349         138.906         144.598         145.272         147.133         147.765         147.990         157.549         157.925         160.831         161.211         166.147         169.510         172.725         173.138
  178           2.133           2.206           3.412          45.895          50.104          53.463          56.618          72.144          72.773          74.825          76.952          82.103          83.316          83.329          84.806          91.640          93.965          95.192          96.557          97.210          98.419         101.129         103.408         104.700         107.198         109.043         109.147         113.951         120.879         121.575         123.349         131.100         133.733         134.350         138.897         144.646         145.299         147.141         147.717         147.969         157.557         157.911         160.872         161.158         166.154         169.526         172.724         173.134
  179           1.422           1.471           2.275          46.007          50.492          53.107          56.549          72.393          72.766          74.814          76.818          82.271          83.119          83.351          84.786          91.655          93.968          95.190          96.586          97.168          98.429         101.115         103.476         104.634         107.227         109.021         109.149         113.969         120.851         121.566         123.335         131.116         133.738         134.351         138.891         144.682         145.319         147.148         147.682         147.953         157.562         157.901         160.915         161.106         166.158         169.537         172.723         173.131
  180           0.711           0.736           1.138          46.076          50.789          52.830          56.507          72.552          72.762          74.805          76.730          82.430          82.944          83.364          84.774          91.665          93.970          95.189          96.605          97.141          98.435         101.106         103.522         104.590         107.245         109.008         109.150         113.980         120.834         121.561         123.326         131.127         133.742         134.352         138.887         144.703         145.330         147.152         147.661         147.943         157.565         157.895         160.959         161.057         166.161         169.544         172.723         173.129
  181           0.000           0.000           0.000          46.099          50.908          52.717          56.493          72.608          72.761          74.801          76.700          82.517          82.851          83.369          84.770          91.668          93.971          95.188          96.612          97.131          98.437         101.103         103.538         104.575         107.251         109.003         109.150         113.984         120.829         121.559         123.323         131.130         133.743         134.352         138.886         144.711         145.334         147.153         147.653         147.940         157.566         157.893         160.996         161.018         166.162         169.546         172.723         173.129
  182           0.729           0.835           1.412          46.104          50.894          52.747          56.497          72.607          72.762          74.803          76.700          82.496          82.876          83.366          84.767          91.668          93.971          95.188          96.589          97.148          98.427         101.110         103.542         104.574         107.248         109.004         109.149         113.983         120.828         121.557         123.329         131.127         133.744         134.355         138.886         144.710         145.325         147.152         147.654         147.941         157.565         157.894         160.961         161.046         166.164         169.543         172.720         173.133
  183           1.458           1.670           2.825          46.122          50.858          52.832          56.510          72.604          72.765          74.810          76.701          82.443          82.937          83.357          84.759          91.667          93.969          95.186          96.527          97.191          98.394         101.129         103.554         104.574         107.241         109.005         109.146         113.982         120.825         121.553         123.347         131.119         133.749         134.363         138.887         144.710         145.296         147.147         147.655         147.945         157.562         157.896         160.909         161.077         166.169         169.533         172.711         173.146
  184           2.187           2.505           4.236          46.150          50.805          52.966          56.532          72.600          72.771          74.821          76.703          82.377          83.020          83.341          84.744          91.667          93.967          95.182          96.439          97.247          98.341         101.159         103.574         104.573         107.230         109.007         109.141         113.980         120.821         121.546         123.377         131.106         133.757         134.376         138.887         144.709         145.249         147.139         147.657         147.952         157.558         157.899         160.849         161.103         166.177         169.517         172.696         173.167
  185           2.916           3.340           5.647          46.190          50.743          53.140          56.562          72.595          72.778          74.836          76.706          82.304          83.115          83.320          84.724          91.666          93.964          95.177          96.336          97.307          98.270         101.199         103.601         104.572         107.215         109.008         109.137         113.977         120.816         121.537         123.418         131.087         133.768         134.395         138.889         144.707         145.184         147.126         147.660         147.960         157.551         157.903         160.780         161.123         166.188         169.495         172.675         173.197
  186           3.645           4.174           7.057          46.242          50.680          53.348          56.601          72.588          72.788          74.854          76.711          82.228          83.219          83.292          84.698          91.664          93.960          95.171          96.222          97.366          98.180         101.248         103.635         104.571         107.195         109.005         109.136         113.973         120.810         121.525         123.471         131.063         133.782         134.420         138.890         144.705         145.104         147.108         147.664         147.970         157.543         157.908         160.702         161.140         166.203         169.468         172.649         173.233
  187           4.373           5.008           8.466          46.305          50.621          53.582          56.649          72.580          72.800          74.874          76.717          82.149          83.258          83.332          84.666          91.663          93.953          95.163          96.103          97.420          98.075         101.303         103.674         104.571         107.171         108.995         109.139         113.968         120.803         121.510         123.533         131.035         133.799         134.449         138.892         144.703         145.008         147.085         147.669         147.981         157.532         157.914         160.614         161.153         166.220         169.436         172.616         173.278
  188           5.102           5.841           9.874          46.379          50.570          53.840          56.706          72.572          72.814          74.896          76.727          82.068          83.217          83.453          84.629          91.661          93.945          95.154          95.979          97.469          97.957         101.364         103.717         104.572         107.144         108.979         109.150         113.962         120.795         121.493         123.607         131.002         133.819         134.484         138.894         144.700         144.900         147.056         147.674         147.992         157.520         157.920         160.518         161.164         166.239         169.399         172.578         173.328
  189           5.830           6.674          11.280          46.464          50.530          54.118          56.770          72.563          72.830          74.917          76.741          81.985          83.170          83.582          84.587          91.658          93.933          95.144          95.854          97.512          97.825         101.428         103.763         104.575         107.113         108.956         109.166         113.955         120.787         121.473         123.689         130.964         133.840         134.523         138.897         144.697         144.779         147.020         147.681         148.001         157.506         157.926         160.411         161.173         166.260         169.358         172.535         173.385
  190           6.558           7.507          12.684          46.560          50.502          54.412          56.844          72.555          72.848          74.937          76.760          81.900          83.115          83.719          84.540          91.656          93.918          95.132          95.729          97.548          97.683         101.495         103.809         104.582         107.079         108.928         109.188         113.948         120.780         121.451         123.781         130.922         133.864         134.567         138.899         144.648         144.693         146.977         147.688         148.009         157.491         157.932         160.295         161.182         166.284         169.313         172.486         173.447
  191           7.285           8.339          14.086          46.667          50.487          54.722          56.925          72.547          72.868          74.953          76.784          81.812          83.054          83.864          84.489          91.653          93.899          95.119          95.606          97.531          97.578         101.563         103.855         104.594         107.042         108.894         109.215         113.939         120.772         121.427         123.881         130.876         133.890         134.616         138.903         144.506         144.689         146.928         147.696         148.014         157.473         157.936         160.169         161.191         166.308         169.265         172.433         173.513
  192           8.012           9.169          15.485          46.785          50.487          55.046          57.015          72.540          72.889          74.965          76.817          81.721          82.984          84.018          84.433          91.649          93.873          95.104          95.486          97.370          97.602         101.631         103.895         104.613         107.003         108.857         109.245         113.930         120.765         121.401         123.989         130.827         133.917         134.670         138.906         144.357         144.685         146.871         147.706         148.015         157.454         157.940         160.033         161.202         166.333         169.215         172.374         173.584
  193           8.739          10.000          16.882          46.914          50.501          55.381          57.113          72.534          72.912          74.970          76.858          81.626          82.908          84.180          84.373          91.645          93.841          95.088          95.372          97.202          97.619         101.699         103.930         104.639         106.962         108.817         109.279         113.920         120.759         121.373         124.104         130.774         133.946         134.728         138.910         144.199         144.680         146.807         147.715         148.013         157.432         157.942         159.887         161.214         166.359         169.162         172.311         173.659
  194           9.465          10.829          18.276          47.053          50.531          55.728          57.219          72.530          72.936          74.967          76.909          81.528          82.823          84.309          84.350          91.641          93.801          95.070          95.265          97.026          97.631         101.767         103.956         104.675         106.919         108.773         109.317         113.909         120.753         121.343         124.225         130.717         133.977         134.790         138.914         144.034         144.674         146.735         147.726         148.005         157.410         157.942         159.732         161.230         166.385         169.107         172.243         173.737
  195          10.191          11.657          19.667          47.202          50.575          56.085          57.333          72.527          72.962          74.955          76.970          81.425          82.730          84.241          84.528          91.636          93.752          95.051          95.168          96.844          97.636         101.833         103.972         104.721         106.876         108.728         109.358         113.897         120.748         121.312         124.354         130.658         134.008         134.856         138.919         143.862         144.669         146.657         147.738         147.992         157.385         157.939         159.567         161.249         166.411         169.051         172.171         173.818
  196          10.916          12.484          21.054          47.362          50.635          56.450          57.455          72.527          72.988          74.932          77.043          81.319          82.629          84.170          84.714          91.630          93.694          95.030          95.080          96.657          97.637         101.897         103.978         104.775         106.832         108.680         109.403         113.884         120.743         121.280         124.487         130.596         134.040         134.926         138.923         143.685         144.663         146.570         147.750         147.974         157.358         157.934         159.393         161.272         166.436         168.992         172.096         173.901
  197          11.640          13.310          22.437          47.531          50.710          56.823          57.585          72.529          73.015          74.899          77.127          81.209          82.519          84.096          84.908          91.623          93.626          95.004          95.007          96.464          97.633         101.959         103.976         104.835         106.789         108.631         109.451         113.871         120.739         121.246         124.627         130.532         134.073         134.999         138.928         143.502         144.656         146.476         147.764         147.950         157.330         157.926         159.210         161.300         166.460         168.932         172.017         173.986
  198          12.364          14.135          23.817          47.710          50.800          57.203          57.722          72.535          73.043          74.856          77.222          81.096          82.401          84.019          85.109          91.616          93.549          94.938          94.982          96.268          97.624         102.018         103.966         104.900         106.747         108.580         109.502         113.856         120.736         121.211         124.771         130.465         134.106         135.076         138.934         143.314         144.650         146.373         147.778         147.920         157.301         157.915         159.019         161.333         166.483         168.870         171.936         174.072
  199          13.087          14.959          25.192          47.899          50.905          57.588          57.867          72.543          73.072          74.801          77.327          80.978          82.274          83.939          85.316          91.607          93.464          94.883          94.954          96.069          97.611         102.075         103.949         104.966         106.707         108.528         109.557         113.841         120.733         121.175         124.919         130.396         134.140         135.156         138.940         143.122         144.643         146.262         147.793         147.885         157.269         157.899         158.821         161.371         166.504         168.806         171.852         174.161
  200          13.809          15.781          26.562          48.097          51.024          57.979          58.019          72.554          73.100          74.737          77.441          80.858          82.138          83.857          85.530          91.597          93.374          94.837          94.922          95.868          97.594         102.129         103.927         105.033         106.670         108.476         109.615         113.825         120.731         121.138         125.071         130.326         134.173         135.239         138.946         142.926         144.635         146.142         147.808         147.844         157.236         157.878         158.618         161.415         166.522         168.740         171.767         174.250
  201          14.531          16.602          27.927          48.304          51.157          58.178          58.373          72.569          73.128          74.663          77.562          80.736          81.994          83.771          85.749          91.586          93.281          94.799          94.884          95.668          97.574         102.181         103.901         105.096         106.638         108.424         109.676         113.808         120.728         121.100         125.227         130.254         134.207         135.324         138.952         142.727         144.627         146.013         147.798         147.825         157.202         157.847         158.414         161.464         166.538         168.672         171.680         174.340
  202          15.252          17.421          29.287          48.520          51.304          58.343          58.770          72.587          73.156          74.580          77.689          80.613          81.841          83.684          85.972          91.572          93.186          94.767          94.837          95.473          97.551         102.229         103.871         105.154         106.612         108.371         109.741         113.790         120.726         121.062         125.385         130.181         134.240         135.412         138.959         142.523         144.619         145.875         147.748         147.843         157.166         157.796         158.221         161.518         166.552         168.601         171.593         174.430
  203          15.971          18.239          30.641          48.744          51.464          58.516          59.168          72.608          73.183          74.490          77.818          80.492          81.679          83.594          86.198          91.556          93.094          94.741          94.772          95.291          97.525         102.275         103.839         105.205         106.594         108.318         109.809         113.772         120.723         121.024         125.546         130.107         134.272         135.502         138.966         142.317         144.611         145.727         147.692         147.861         157.128         157.699         158.063         161.578         166.563         168.527         171.506         174.522
  204          16.690          19.055          31.989          48.977          51.637          58.696          59.568          72.632          73.209          74.393          77.945          80.375          81.509          83.501          86.426          91.537          93.006          94.676          94.718          95.136          97.497         102.318         103.804         105.246         106.585         108.266         109.880         113.753         120.719         120.985         125.710         130.033         134.304         135.595         138.973         142.108         144.602         145.569         147.633         147.880         157.089         157.533         157.967         161.642         166.570         168.449         171.420         174.613
  205          17.407          19.869          33.330          49.218          51.822          58.881          59.968          72.656          73.233          74.293          78.066          80.268          81.332          83.406          86.653          91.516          92.925          94.537          94.698          95.020          97.466         102.357         103.768         105.276         106.587         108.215         109.955         113.733         120.715         120.946         125.874         129.958         134.335         135.689         138.981         141.897         144.593         145.401         147.570         147.900         157.048         157.317         157.913         161.710         166.575         168.367         171.336         174.705
  206          18.124          20.682          34.663          49.467          52.020          59.073          60.367          72.681          73.255          74.190          78.173          80.176          81.146          83.309          86.879          91.492          92.853          94.359          94.680          94.940          97.433         102.394         103.732         105.294         106.599         108.165         110.032         113.712         120.709         120.908         126.040         129.883         134.365         135.784         138.989         141.683         144.584         145.223         147.504         147.920         157.006         157.074         157.877         161.783         166.576         168.280         171.253         174.797
  207          18.839          21.492          35.989          49.724          52.229          59.271          60.763          72.704          73.275          74.089          78.257          80.109          80.953          83.209          87.101          91.465          92.791          94.156          94.664          94.881          97.398         102.428         103.695         105.300         106.623         108.117         110.113         113.691         120.702         120.869         126.207         129.808         134.393         135.881         138.997         141.468         144.575         145.034         147.435         147.942         156.818         156.963         157.850         161.859         166.574         168.188         171.174         174.889
  208          19.553          22.301          37.306          49.987          52.450          59.475          61.157          72.719          73.291          73.994          78.307          80.078          80.753          83.106          87.317          91.436          92.743          93.939          94.649          94.833          97.361         102.459         103.658         105.294         106.657         108.070         110.197         113.668         120.692         120.831         126.373         129.735         134.420         135.980         139.006         141.250         144.565         144.836         147.364         147.964         156.551         156.918         157.827         161.939         166.568         168.090         171.098         174.980
  209          20.265          23.108          38.613          50.258          52.682          59.685          61.547          72.723          73.304          73.912          78.313          80.091          80.546          83.001          87.522          91.407          92.707          93.715          94.636          94.791          97.322         102.487         103.622         105.279         106.700         108.025         110.283         113.646         120.681         120.793         126.538         129.663         134.445         136.079         139.014         141.031         144.556         144.627         147.291         147.987         156.276         156.872         157.807         162.021         166.559         167.986         171.026         175.072
  210          20.976          23.912          39.910          50.535          52.926          59.900          61.932          72.707          73.312          73.850          78.271          80.150          80.333          82.893          87.715          91.380          92.686          93.485          94.624          94.752          97.282         102.512         103.587         105.254         106.749         107.982         110.373         113.622         120.667         120.755         126.702         129.592         134.468         136.179         139.023         140.811         144.410         144.546         147.217         148.011         155.994         156.825         157.790         162.106         166.546         167.876         170.958         175.163
  211          21.686          24.714          41.195          50.819          53.181          60.120          62.310          72.665          73.315          73.817          78.187          80.115          80.253          82.782          87.892          91.357          92.679          93.252          94.615          94.714          97.239         102.534         103.554         105.223         106.804         107.943         110.465         113.598         120.650         120.718         126.863         129.525         134.488         136.279         139.033         140.588         144.183         144.536         147.141         148.035         155.707         156.777         157.774         162.193         166.530         167.758         170.896         175.254
  212          22.394          25.514          42.467          51.109          53.449          60.345          62.682          72.593          73.312          73.816          78.067          79.892          80.391          82.669          88.048          91.339          92.686          93.017          94.608          94.677          97.195         102.554         103.523         105.187         106.862         107.907         110.560         113.574         120.630         120.682         127.020         129.461         134.505         136.380         139.042         140.365         143.949         144.525         147.063         148.061         155.414         156.728         157.760         162.281         166.509         167.635         170.838         175.344
  213          23.100          26.312          43.724          51.404          53.729          60.575          63.044          72.493          73.302          73.849          77.919          79.665          80.554          82.552          88.182          91.330          92.706          92.780          94.606          94.641          97.150         102.571         103.495         105.147         106.921         107.875         110.657         113.549         120.606         120.646         127.173         129.401         134.519         136.481         139.052         140.140         143.707         144.515         146.985         148.087         155.116         156.677         157.749         162.370         166.485         167.504         170.786         175.434
  214          23.804          27.107          44.963          51.706          54.023          60.809          63.396          72.368          73.284          73.911          77.752          79.435          80.736          82.432          88.291          91.331          92.543          92.737          94.604          94.610          97.103         102.586         103.469         105.105         106.979         107.849         110.757         113.524         120.579         120.611         127.319         129.347         134.530         136.582         139.062         139.915         143.460         144.505         146.906         148.113         154.815         156.626         157.739         162.460         166.457         167.368         170.739         175.523
  215          24.507          27.900          46.181          52.012          54.334          61.048          63.737          72.226          73.256          73.998          77.569          79.203          80.931          82.310          88.374          91.342          92.305          92.777          94.568          94.622          97.055         102.598         103.447         105.061         107.035         107.830         110.859         113.498         120.547         120.577         127.457         129.301         134.536         136.682         139.073         139.687         143.208         144.494         146.826         148.140         154.510         156.573         157.732         162.551         166.424         167.227         170.697         175.611
  216          25.207          28.690          47.373          52.323          54.664          61.291          64.065          72.071          73.219          74.105          77.374          78.970          81.134          82.184          88.432          91.362          92.067          92.823          94.531          94.644          97.007         102.609         103.428         105.017         107.085         107.819         110.963         113.472         120.510         120.543         127.584         129.265         134.538         136.783         139.083         139.459         142.954         144.484         146.744         148.168         154.203         156.520         157.727         162.641         166.385         167.083         170.659         175.699
  217          25.906          29.477          48.533          52.638          55.019          61.537          64.378          71.909          73.169          74.231          77.171          78.737          81.343          82.055          88.467          91.391          91.830          92.870          94.494          94.679          96.960         102.616         103.412         104.973         107.128         107.818         111.070         113.445         120.469         120.511         127.698         129.240         134.534         136.882         139.094         139.228         142.698         144.473         146.661         148.197         153.894         156.466         157.724         162.730         166.338         166.938         170.627         175.786
  218          26.602          30.262          49.653          52.958          55.407          61.787          64.674          71.743          73.106          74.371          76.960          78.505          81.553          81.923          88.482          91.425          91.595          92.915          94.457          94.728          96.916         102.622         103.400         104.930         107.161         107.830         111.180         113.418         120.422         120.479         127.795         129.230         134.525         136.981         138.996         139.105         142.443         144.462         146.576         148.226         153.583         156.411         157.723         162.819         166.279         166.796         170.599         175.872
  219          27.295          31.044          50.719          53.282          55.838          62.040          64.952          71.577          73.028          74.526          76.745          78.276          81.762          81.788          88.481          91.360          91.463          92.952          94.419          94.791          96.877         102.626         103.390         104.889         107.184         107.854         111.292         113.391         120.369         120.449         127.874         129.236         134.510         137.079         138.762         139.117         142.191         144.452         146.490         148.256         153.272         156.355         157.724         162.906         166.204         166.664         170.575         175.957
  220          27.987          31.823          51.715          53.609          56.327          62.296          65.207          71.416          72.934          74.694          76.525          78.052          81.650          81.969          88.469          91.128          91.503          92.979          94.381          94.866          96.848         102.628         103.384         104.851         107.196         107.890         111.407         113.364         120.311         120.419         127.932         129.259         134.488         137.176         138.526         139.128         141.944         144.441         146.400         148.286         152.961         156.299         157.727         162.991         166.104         166.550         170.555         176.041
  221          28.675          32.599          52.624          53.939          56.889          62.555          65.439          71.262          72.822          74.874          76.301          77.832          81.509          82.170          88.451          90.897          91.544          92.992          94.343          94.947          96.834         102.629         103.380         104.816         107.199         107.936         111.525         113.336         120.246         120.390         127.970         129.300         134.459         137.272         138.287         139.140         141.705         144.431         146.307         148.317         152.652         156.243         157.732         163.074         165.978         166.456         170.538         176.124
  222          29.361          33.372          53.428          54.272          57.539          62.816          65.644          71.122          72.691          75.065          76.076          77.620          81.364          82.363          88.430          90.670          91.585          92.990          94.305          95.025          96.841         102.627         103.378         104.785         107.195         107.991         111.646         113.309         120.175         120.363         127.989         129.354         134.423         137.366         138.046         139.152         141.475         144.420         146.211         148.348         152.345         156.186         157.740         163.154         165.829         166.380         170.525         176.205
  223          30.045          34.141          54.123          54.607          58.278          63.079          65.822          71.000          72.539          75.267          75.850          77.415          81.216          82.545          88.412          90.446          91.625          92.975          94.267          95.090          96.877         102.624         103.377         104.758         107.185         108.051         111.770         113.281         120.098         120.336         127.993         129.419         134.379         137.459         137.802         139.165         141.257         144.410         146.110         148.379         152.042         156.128         157.749         163.230         165.665         166.317         170.514         176.286
  224          30.725          34.908          54.717          54.944          59.093          63.343          65.971          70.900          72.366          75.474          75.626          77.218          81.065          82.714          88.400          90.225          91.665          92.948          94.228          95.132          96.949         102.620         103.377         104.736         107.172         108.115         111.899         113.254         120.013         120.310         127.984         129.490         134.327         137.549         137.555         139.177         141.053         144.400         146.003         148.411         151.744         156.071         157.760         163.302         165.490         166.261         170.506         176.365
  225          31.402          35.671          55.227          55.282          59.958          63.609          66.094          70.827          72.172          75.389          75.703          77.031          80.911          82.868          88.399          90.009          91.704          92.910          94.190          95.144          97.059         102.615         103.376         104.721         107.156         108.180         112.032         113.226         119.922         120.286         127.967         129.562         134.266         137.306         137.638         139.190         140.865         144.390         145.889         148.444         151.452         156.013         157.773         163.369         165.311         166.210         170.501         176.442
  226          32.075          36.431          55.621          55.674          60.841          63.875          66.200          70.783          71.955          75.162          75.929          76.853          80.754          83.004          88.410          89.797          91.742          92.862          94.151          95.126          97.205         102.608         103.374         104.711         107.139         108.246         112.170         113.199         119.824         120.262         127.944         129.632         134.199         137.056         137.725         139.203         140.694         144.380         145.768         148.476         151.168         155.955         157.788         163.428         165.130         166.161         170.497         176.519
  227          32.745          37.187          55.961          56.075          61.704          64.140          66.307          70.771          71.718          74.935          76.164          76.683          80.594          83.121          88.437          89.590          91.780          92.807          94.112          95.080          97.380         102.600         103.371         104.708         107.121         108.311         112.312         113.172         119.718         120.240         127.916         129.696         134.124         136.806         137.810         139.216         140.541         144.370         145.638         148.509         150.894         155.898         157.805         163.478         164.952         166.113         170.496         176.593
  228          33.411          37.939          56.301          56.442          62.498          64.406          66.452          70.790          71.459          74.710          76.404          76.522          80.431          83.216          88.482          89.388          91.817          92.746          94.074          95.010          97.579         102.592         103.365         104.712         107.103         108.373         112.460         113.145         119.606         120.218         127.886         129.751         134.044         136.558         137.892         139.230         140.406         144.361         145.497         148.542         150.630         155.840         157.824         163.515         164.782         166.067         170.496         176.666
  229          34.073          38.688          56.641          56.784          63.155          64.669          66.695          70.837          71.182          74.486          76.368          76.649          80.265          83.291          88.545          89.192          91.854          92.681          94.035          94.923          97.792         102.582         103.356         104.724         107.086         108.431         112.614         113.119         119.487         120.198         127.854         129.793         133.958         136.312         137.972         139.243         140.289         144.351         145.346         148.575         150.379         155.783         157.844         163.532         164.627         166.021         170.498         176.737
  230          34.731          39.433          56.979          57.106          63.605          64.929          67.102          70.888          70.911          74.266          76.220          76.897          80.096          83.345          88.625          89.001          91.890          92.613          93.997          94.821          98.015         102.572         103.344         104.741         107.069         108.486         112.773         113.093         119.361         120.178         127.823         129.821         133.870         136.071         138.050         139.257         140.191         144.342         145.182         148.609         150.143         155.726         157.866         163.521         164.495         165.976         170.501         176.807
  231          35.385          40.174          57.316          57.413          63.825          65.185          67.696          70.580          71.006          74.050          76.077          77.147          79.925          83.380          88.722          88.818          91.924          92.545          93.959          94.709          98.242         102.562         103.330         104.766         107.052         108.534         112.938         113.067         119.228         120.159         127.791         129.832         133.779         135.838         138.124         139.272         140.110         144.333         145.005         148.642         149.921         155.669         157.889         163.472         164.398         165.931         170.506         176.874
  232          36.033          40.912          57.650          57.707          63.856          65.434          68.434          70.260          71.118          73.840          75.938          77.397          79.751          83.397          88.641          88.833          91.954          92.479          93.922          94.589          98.468         102.550         103.313         104.796         107.037         108.576         113.042         113.108         119.090         120.142         127.760         129.824         133.688         135.615         138.196         139.286         140.045         144.325         144.814         148.675         149.716         155.613         157.914         163.381         164.340         165.886         170.511         176.940
  233          36.677          41.645          57.981          57.989          63.759          65.673          69.256          69.934          71.243          73.639          75.801          77.646          79.575          83.400          88.471          88.955          91.977          92.421          93.885          94.466          98.691         102.539         103.295         104.831         107.023         108.612         113.017         113.283         118.947         120.125         127.729         129.795         133.598         135.403         138.265         139.301         139.995         144.316         144.610         148.708         149.528         155.558         157.941         163.254         164.315         165.843         170.518         177.003
  234          37.315          42.374          58.260          58.308          63.579          65.896          69.608          70.112          71.378          73.452          75.666          77.891          79.397          83.393          88.308          89.082          91.987          92.379          93.848          94.340          98.907         102.527         103.275         104.871         107.011         108.640         112.993         113.461         118.799         120.109         127.700         129.745         133.510         135.207         138.330         139.317         139.959         144.308         144.393         148.741         149.357         155.504         157.968         163.101         164.316         165.799         170.525         177.065
  235          37.947          43.098          58.521          58.630          63.344          66.095          69.292          70.958          71.523          73.294          75.532          78.132          79.217          83.378          88.153          89.211          91.978          92.359          93.812          94.216          99.112         102.515         103.257         104.914         107.000         108.659         112.970         113.642         118.648         120.094         127.672         129.675         133.421         135.029         138.392         139.332         139.935         144.163         144.300         148.773         149.203         155.450         157.998         162.931         164.331         165.757         170.533         177.124
  236          38.572          43.819          58.771          58.946          63.073          66.254          69.002          71.573          71.836          73.207          75.397          78.368          79.036          83.361          88.006          89.335          91.947          92.365          93.777          94.097          99.305         102.503         103.240         104.960         106.991         108.670         112.947         113.823         118.496         120.080         127.646         129.584         133.332         134.873         138.451         139.348         139.922         143.922         144.293         148.805         149.066         155.398         158.028         162.752         164.354         165.715         170.542         177.181
  237          39.190          44.534          59.010          59.255          62.776          66.352          68.761          71.723          72.366          73.365          75.261          78.596          78.853          83.346          87.867          89.448          91.902          92.389          93.743          93.990          99.482         102.491         103.226         105.007         106.984         108.673         112.925         114.002         118.344         120.067         127.621         129.477         133.239         134.740         138.507         139.364         139.918         143.672         144.286         148.836         148.944         155.347         158.060         162.569         164.383         165.673         170.551         177.235
  238          39.801          45.245          59.234          59.554          62.464          66.358          68.601          71.798          72.532          73.947          75.125          78.669          78.819          83.336          87.735          89.543          91.853          92.420          93.710          93.900          99.639         102.479         103.218         105.056         106.979         108.667         112.904         114.176         118.196         120.054         127.597         129.354         133.140         134.633         138.559         139.381         139.922         143.413         144.279         148.838         148.867         155.298         158.094         162.384         164.413         165.633         170.561         177.288
  239          40.404          45.951          59.439          59.842          62.146          66.251          68.544          71.802          72.582          74.691          74.986          78.485          79.037          83.337          87.612          89.616          91.804          92.447          93.677          93.839          99.775         102.467         103.217         105.104         106.977         108.653         112.884         114.341         118.054         120.043         127.574         129.220         133.034         134.554         138.608         139.397         139.932         143.149         144.273         148.745         148.897         155.250         158.128         162.199         164.445         165.593         170.570         177.337
  240          40.997          46.653          59.619          60.117          61.833          66.038          68.585          71.733          72.662          74.846          75.441          78.301          79.257          83.351          87.497          89.659          91.761          92.458          93.646          93.818          99.886         102.456         103.226         105.151         106.977         108.630         112.864         114.491         117.924         120.032         127.553         129.079         132.920         134.502         138.653         139.414         139.947         142.882         144.266         148.665         148.926         155.204         158.164         162.016         164.476         165.555         170.580         177.385
  241          41.580          47.349          59.757          60.373          61.543          65.747          68.700          71.616          72.778          74.705          76.149          78.118          79.488          83.383          87.390          89.671          91.724          92.444          93.616          93.847          99.970         102.444         103.246         105.197         106.980         108.600         112.846         114.622         117.811         120.022         127.534         128.933         132.799         134.475         138.695         139.431         139.965         142.613         144.261         148.596         148.954         155.159         158.201         161.836         164.507         165.517         170.590         177.429
  242          42.152          48.040          59.825          60.608          61.309          65.410          68.861          71.475          72.915          74.563          76.783          77.936          79.747          83.433          87.291          89.650          91.692          92.403          93.588          93.929         100.024         102.433         103.278         105.240         106.986         108.563         112.828         114.726         117.720         120.012         127.515         128.786         132.672         134.469         138.733         139.448         139.984         142.347         144.255         148.537         148.981         155.117         158.240         161.660         164.537         165.481         170.600         177.471
  243          42.710          48.726          59.782          60.812          61.172          65.051          69.048          71.325          73.063          74.420          77.317          77.756          80.058          83.503          87.199          89.596          91.663          92.342          93.561          94.062         100.046         102.423         103.322         105.279         106.996         108.519         112.812         114.800         117.656         120.004         127.498         128.641         132.542         134.481         138.768         139.464         140.003         142.086         144.250         148.487         149.006         155.077         158.279         161.489         164.565         165.446         170.610         177.511
  244          43.254          49.406          59.615          60.976          61.149          64.692          69.250          71.173          73.215          74.276          77.579          77.728          80.437          83.594          87.116          89.513          91.630          92.269          93.535          94.236         100.038         102.413         103.380         105.314         107.009         108.470         112.796         114.838         117.624         119.996         127.481         128.502         132.412         134.509         138.800         139.481         140.019         141.834         144.245         148.445         149.031         155.039         158.320         161.323         164.593         165.412         170.619         177.547
  245          43.782          50.080          59.357          61.084          61.208          64.355          69.458          71.024          73.367          74.134          77.407          78.014          80.885          83.704          87.040          89.403          91.587          92.197          93.511          94.444          99.998         102.404         103.449         105.343         107.025         108.416         112.782         114.840         117.624         119.989         127.466         128.370         132.282         134.548         138.829         139.496         140.029         141.595         144.241         148.409         149.054         155.003         158.361         161.165         164.618         165.380         170.628         177.581
  246          44.290          50.748          59.051          61.114          61.309          64.065          69.667          70.880          73.517          73.993          77.239          78.194          81.381          83.834          86.972          89.268          91.528          92.135          93.489          94.678          99.929         102.395         103.527         105.368         107.044         108.359         112.769         114.809         117.653         119.982         127.452         128.246         132.156         134.596         138.854         139.512         140.030         141.374         144.237         148.380         149.075         154.970         158.403         161.013         164.643         165.349         170.637         177.612
  247          44.775          51.410          58.726          61.044          61.426          63.844          69.873          70.744          73.663          73.854          77.079          78.297          81.896          83.984          86.910          89.112          91.452          92.089          93.468          94.931          99.832         102.387         103.613         105.386         107.066         108.300         112.757         114.752         117.706         119.976         127.439         128.134         132.036         134.650         138.876         139.526         140.018         141.177         144.234         148.356         149.095         154.940         158.446         160.870         164.665         165.320         170.645         177.641
  248          45.235          52.065          58.397          60.861          61.545          63.708          70.073          70.617          73.720          73.802          76.927          78.346          82.400          84.157          86.856          88.936          91.361          92.058          93.450          95.199          99.710         102.380         103.703         105.397         107.091         108.240         112.746         114.676         117.774         119.971         127.426         128.033         131.922         134.708         138.896         139.539         139.987         141.012         144.230         148.336         149.113         154.913         158.488         160.736         164.687         165.293         170.653         177.666
  249          45.664          52.713          58.078          60.572          61.659          63.649          70.264          70.500          73.591          73.932          76.785          78.360          82.867          84.360          86.809          88.742          91.260          92.039          93.433          95.477          99.565         102.373         103.794         105.402         107.117         108.181         112.737         114.589         117.852         119.966         127.415         127.944         131.817         134.767         138.913         139.552         139.933         140.884         144.228         148.321         149.129         154.888         158.530         160.612         164.706         165.268         170.660         177.688
  250          46.057          53.353          57.776          60.198          61.765          63.646          70.396          70.443          73.469          74.051          76.656          78.351          83.271          84.604          86.769          88.530          91.158          92.029          93.419          95.759          99.400         102.368         103.883         105.402         107.144         108.125         112.728         114.499         117.931         119.963         127.405         127.868         131.723         134.826         138.928         139.563         139.860         140.792         144.225         148.308         149.144         154.866         158.571         160.499         164.724         165.245         170.666         177.708
  251          46.409          53.984          57.499          59.762          61.858          63.675          70.306          70.606          73.357          74.158          76.541          78.328          83.593          84.899          86.735          88.301          91.060          92.024          93.407          96.040          99.220         102.363         103.967         105.396         107.171         108.072         112.721         114.412         118.007         119.959         127.395         127.805         131.640         134.881         138.940         139.572         139.773         140.733         144.223         148.298         149.156         154.848         158.609         160.399         164.739         165.225         170.671         177.725
  252          46.711          54.606          57.257          59.284          61.936          63.718          70.230          70.750          73.257          74.249          76.443          78.301          83.829          85.237          86.707          88.055          90.972          92.022          93.396          96.313          99.031         102.359         104.044         105.387         107.196         108.025         112.715         114.333         118.074         119.957         127.387         127.754         131.570         134.931         138.949         139.580         139.686         140.697         144.221         148.291         149.166         154.833         158.644         160.314         164.753         165.208         170.675         177.738
  253          46.957          55.215          57.057          58.778          61.999          63.761          70.170          70.870          73.173          74.323          76.364          78.273          83.993          85.595          86.686          87.796          90.898          92.022          93.388          96.569          98.842         102.356         104.108         105.377         107.218         107.986         112.711         114.268         118.130         119.954         127.381         127.715         131.514         134.972         138.957         139.586         139.607         140.677         144.220         148.285         149.174         154.821         158.673         160.244         164.763         165.194         170.679         177.749
  254          47.139          55.805          56.907          58.257          62.045          63.797          70.126          70.961          73.108          74.378          76.306          78.250          84.101          85.946          86.671          87.529          90.843          92.022          93.383          96.790          98.668         102.353         104.157         105.367         107.236         107.956         112.708         114.219         118.172         119.953         127.376         127.688         131.474         135.004         138.962         139.545         139.591         140.666         144.219         148.281         149.179         154.813         158.696         160.193         164.771         165.184         170.681         177.756
  255          47.251          56.350          56.815          57.752          62.073          63.820          70.100          71.018          73.068          74.411          76.271          78.235          84.162          86.250          86.662          87.281          90.808          92.023          93.379          96.950          98.538         102.352         104.188         105.360         107.247         107.938         112.706         114.189         118.198         119.952         127.372         127.672         131.449         135.023         138.965         139.506         139.594         140.660         144.219         148.279         149.183         154.807         158.711         160.161         164.776         165.178         170.682         177.761
  256          47.289          56.667          56.783          57.448          62.082          63.828          70.091          71.037          73.053          74.423          76.259          78.230          84.182          86.395          86.659          87.155          90.796          92.023          93.378          97.010          98.487         102.352         104.199         105.357         107.251         107.931         112.705         114.178         118.207         119.952         127.371         127.666         131.441         135.030         138.966         139.492         139.595         140.659         144.218         148.278         149.184         154.806         158.716         160.150         164.778         165.176         170.683         177.762
