# Phonon frequencies in cm-1
    1          49.479          49.479          60.733          60.733          62.647          62.647          69.830          69.830          74.322          74.322          76.766          76.766          85.588          85.588          87.313          87.313          89.926          89.926          98.848          98.848         103.825         103.825         107.551         107.551         109.827         109.827         111.164         111.164         118.101         118.101         119.342         119.342         124.774         124.774         129.622         129.622         136.680         136.680         143.966         143.966         157.427         157.427         166.831         166.831         171.054         171.054         176.212         176.212
    2          49.346          49.605          60.366          61.079          62.525          62.775          69.689          69.961          73.986          74.657          76.772          76.779          85.554          85.584          87.148          87.499          89.842          90.022          98.791          98.898         103.799         103.845         107.468         107.573         109.670         110.034         111.073         111.255         117.942         118.258         119.140         119.551         124.768         124.795         129.491         129.757         136.614         136.745         143.942         143.994         157.335         157.517         166.831         166.831         170.970         171.137         176.200         176.221
    3          49.206          49.722          59.984          61.392          62.424          62.902          69.535          70.081          73.658          74.982          76.805          76.806          85.494          85.532          87.022          87.691          89.775          90.125          98.726          98.943         103.770         103.858         107.325         107.544         109.569         110.277         110.982         111.350         117.785         118.390         118.969         119.761         124.779         124.834         129.363         129.897         136.547         136.810         143.923         144.025         157.240         157.605         166.831         166.831         170.883         171.217         176.185         176.229
    4          49.060          49.830          59.589          61.640          62.378          63.022          69.367          70.192          73.344          75.280          76.843          76.877          85.414          85.424          86.943          87.872          89.733          90.232          98.653          98.981         103.737         103.862         107.133         107.473         109.516         110.534         110.890         111.455         117.634         118.419         118.909         119.969         124.806         124.889         129.240         130.040         136.480         136.874         143.906         144.061         157.143         157.690         166.831         166.831         170.795         171.295         176.169         176.234
    5          48.910          49.927          59.183          61.755          62.456          63.131          69.186          70.294          73.051          75.535          76.888          77.004          85.262          85.322          86.912          88.025          89.727          90.343          98.572          99.013         103.703         103.855         106.910         107.371         109.498         110.781         110.796         111.581         117.487         118.290         119.017         120.173         124.847         124.960         129.121         130.186         136.414         136.936         143.894         144.100         157.044         157.773         166.830         166.831         170.704         171.372         176.150         176.238
    6          48.755          50.013          58.767          61.739          62.659          63.223          68.992          70.389          72.782          75.732          76.939          77.196          85.059          85.218          86.919          88.137          89.769          90.455          98.481          99.041         103.668         103.835         106.675         107.246         109.502         110.700         110.993         111.743         117.347         118.095         119.203         120.374         124.903         125.048         129.006         130.337         136.348         136.997         143.885         144.144         156.943         157.854         166.830         166.831         170.612         171.446         176.130         176.239
    7          48.597          50.086          58.341          61.666          62.911          63.294          68.787          70.477          72.541          75.872          76.995          77.453          84.827          85.108          86.953          88.198          89.864          90.568          98.380          99.063         103.632         103.797         106.443         107.104         109.517         110.603         111.153         111.949         117.213         117.881         119.424         120.571         124.973         125.150         128.895         130.491         136.283         137.056         143.879         144.191         156.839         157.932         166.829         166.830         170.517         171.518         176.106         176.238
    8          48.436          50.146          57.907          61.579          63.173          63.336          68.574          70.558          72.330          75.969          77.055          77.758          84.576          84.991          87.005          88.210          90.008          90.680          98.270          99.080         103.597         103.741         106.226         106.948         109.534         110.504         111.265         112.187         117.085         117.662         119.667         120.764         125.056         125.266         128.789         130.648         136.219         137.114         143.877         144.243         156.733         158.007         166.827         166.830         170.421         171.588         176.081         176.234
    9          48.273          50.191          57.465          61.493          63.344          63.429          68.357          70.633          72.151          76.037          77.117          78.093          84.314          84.871          87.070          88.182          90.193          90.791          98.149          99.093         103.563         103.664         106.032         106.781         109.549         110.405         111.342         112.440         116.965         117.444         119.929         120.954         125.151         125.395         128.688         130.808         136.157         137.170         143.877         144.299         156.626         158.080         166.826         166.830         170.323         171.656         176.054         176.229
   10          48.108          50.221          57.016          61.415          63.311          63.674          68.143          70.701          72.004          76.089          77.182          78.445          84.045          84.750          87.142          88.125          90.404          90.900          98.018          99.100         103.530         103.567         105.865         106.606         109.558         110.305         111.396         112.689         116.852         117.230         120.211         121.142         125.258         125.536         128.591         130.971         136.097         137.224         143.881         144.359         156.516         158.151         166.824         166.830         170.223         171.722         176.024         176.222
   11          47.941          50.235          56.561          61.347          63.231          63.906          67.938          70.763          71.887          76.132          77.249          78.803          83.774          84.630          87.221          88.048          90.632          91.007          97.878          99.103         103.452         103.498         105.727         106.424         109.557         110.204         111.433         112.925         116.746         117.025         120.511         121.327         125.375         125.685         128.500         131.137         136.039         137.277         143.888         144.423         156.404         158.219         166.821         166.830         170.121         171.785         175.992         176.213
   12          47.774          50.233          56.099          61.292          63.099          64.122          67.747          70.818          71.799          76.170          77.316          79.160          83.503          84.513          87.304          87.956          90.870          91.111          97.729          99.101         103.323         103.469         105.616         106.236         109.546         110.104         111.457         113.139         116.650         116.830         120.830         121.511         125.502         125.841         128.415         131.306         135.985         137.329         143.898         144.491         156.290         158.284         166.818         166.829         170.018         171.847         175.958         176.201
   13          47.607          50.214          55.633          61.250          62.913          64.322          67.574          70.867          71.739          76.206          77.384          79.509          83.235          84.405          87.391          87.854          91.112          91.213          97.575          99.094         103.185         103.442         105.528         106.044         109.522         110.004         111.470         113.325         116.561         116.650         121.167         121.693         125.639         126.002         128.339         131.476         135.933         137.379         143.910         144.562         156.175         158.348         166.815         166.829         169.913         171.906         175.922         176.188
   14          47.438          50.178          55.162          61.222          62.672          64.506          67.421          70.908          71.704          76.240          77.450          79.845          82.971          84.310          87.481          87.743          91.311          91.355          97.417          99.081         103.044         103.418         105.458         105.848         109.485         109.906         111.473         113.479         116.482         116.489         121.522         121.876         125.784         126.164         128.272         131.649         135.885         137.428         143.925         144.638         156.057         158.408         166.811         166.829         169.806         171.964         175.883         176.173
   15          47.270          50.126          54.687          61.208          62.378          64.673          67.286          70.943          71.693          76.271          77.516          80.161          82.712          84.234          87.574          87.626          91.406          91.596          97.257          99.063         102.903         103.397         105.401         105.649         109.434         109.809         111.467         113.596         116.351         116.412         121.892         122.058         125.936         126.321         128.218         131.823         135.842         137.476         143.942         144.717         155.938         158.466         166.806         166.829         169.697         172.019         175.843         176.156
   16          47.101          50.057          54.208          61.208          62.036          64.823          67.166          70.968          71.702          76.300          77.581          80.452          82.462          84.183          87.502          87.669          91.497          91.832          97.101          99.039         102.767         103.379         105.353         105.448         109.370         109.714         111.452         113.674         116.241         116.351         122.241         122.278         126.096         126.470         128.182         131.999         135.802         137.523         143.962         144.800         155.817         158.522         166.801         166.829         169.587         172.072         175.800         176.137
   17          46.931          49.972          53.728          61.220          61.652          64.957          67.058          70.985          71.729          76.324          77.643          80.710          82.221          84.166          87.373          87.767          91.584          92.061          96.950          99.009         102.636         103.365         105.245         105.312         109.289         109.624         111.427         113.711         116.161         116.299         122.425         122.677         126.262         126.601         128.169         132.176         135.768         137.570         143.984         144.886         155.694         158.575         166.794         166.829         169.475         172.123         175.756         176.116
   18          46.761          49.872          53.246          61.230          61.245          65.075          66.958          70.992          71.771          76.342          77.702          80.929          81.991          84.190          87.240          87.867          91.667          92.280          96.810          98.972         102.512         103.354         105.042         105.274         109.193         109.540         111.394         113.708         116.112         116.257         122.609         123.087         126.434         126.709         128.187         132.354         135.739         137.617         144.009         144.975         155.569         158.625         166.787         166.828         169.362         172.172         175.709         176.093
   19          46.590          49.757          52.763          60.776          61.280          65.177          66.862          70.988          71.825          76.353          77.759          81.107          81.775          84.261          87.102          87.970          91.747          92.489          96.685          98.929         102.395         103.346         104.837         105.238         109.081         109.463         111.352         113.672         116.090         116.222         122.795         123.507         126.611         126.784         128.241         132.532         135.715         137.664         144.035         145.068         155.443         158.673         166.779         166.828         169.247         172.219         175.660         176.069
   20          46.416          49.628          52.282          60.295          61.325          65.265          66.767          70.972          71.887          76.355          77.813          81.243          81.572          84.378          86.961          88.074          91.822          92.684          96.579          98.879         102.284         103.342         104.632         105.202         108.955         109.393         111.300         113.608         116.092         116.196         122.981         123.935         126.792         126.827         128.333         132.712         135.698         137.712         144.064         145.164         155.315         158.719         166.770         166.828         169.131         172.264         175.609         176.043
   21          46.240          49.487          51.803          59.791          61.377          65.338          66.670          70.941          71.954          76.346          77.864          81.344          81.386          84.536          86.820          88.181          91.894          92.864          96.496          98.821         102.179         103.341         104.427         105.165         108.815         109.330         111.240         113.523         116.111         116.177         123.169         124.368         126.838         126.978         128.459         132.891         135.686         137.762         144.094         145.262         155.186         158.762         166.760         166.827         169.014         172.307         175.556         176.015
   22          46.059          49.334          51.329          59.266          61.435          65.398          66.571          70.895          72.023          76.325          77.913          81.218          81.419          84.725          86.682          88.290          91.961          93.026          96.439          98.757         102.079         103.343         104.223         105.127         108.664         109.272         111.171         113.427         116.143         116.166         123.356         124.806         126.824         127.167         128.614         133.071         135.682         137.812         144.127         145.364         155.055         158.802         166.748         166.827         168.895         172.348         175.502         175.986
   23          45.872          49.169          50.861          58.724          61.496          65.445          66.468          70.833          72.089          76.291          77.960          81.068          81.477          84.930          86.554          88.402          92.024          93.171          96.412          98.684         101.981         103.347         104.019         105.088         108.503         109.221         111.093         113.323         116.160         116.183         123.543         125.245         126.793         127.359         128.789         133.251         135.684         137.865         144.161         145.467         154.923         158.841         166.735         166.826         168.775         172.387         175.445         175.956
   24          45.677          48.996          50.402          58.168          61.558          65.481          66.360          70.752          72.149          76.246          78.006          80.937          81.530          85.128          86.452          88.515          92.083          93.298          96.414          98.604         101.885         103.352         103.817         105.048         108.333         109.176         111.007         113.219         116.161         116.228         123.728         125.685         126.752         127.554         128.978         133.431         135.694         137.921         144.197         145.574         154.789         158.876         166.721         166.826         168.653         172.424         175.386         175.923
   25          45.470          48.813          49.955          57.598          61.620          65.505          66.247          70.652          72.200          76.189          78.054          80.827          81.583          85.284          86.403          88.630          92.139          93.409          96.445          98.516         101.790         103.353         103.623         105.007         108.157         109.135         110.913         113.116         116.167         116.275         123.910         126.122         126.704         127.750         129.177         133.612         135.711         137.980         144.234         145.683         154.654         158.910         166.705         166.825         168.531         172.459         175.326         175.890
   26          45.250          48.622          49.524          57.017          61.676          65.520          66.128          70.532          72.239          76.122          78.105          80.735          81.643          85.354          86.448          88.748          92.190          93.505          96.504          98.421         101.693         103.314         103.471         104.965         107.975         109.100         110.812         113.019         116.178         116.323         124.087         126.556         126.656         127.948         129.382         133.793         135.736         138.042         144.273         145.794         154.518         158.941         166.688         166.824         168.408         172.492         175.264         175.855
   27          45.010          48.424          49.114          56.425          61.726          65.524          66.003          70.392          72.263          76.049          78.162          80.662          81.713          85.324          86.595          88.867          92.238          93.591          96.587          98.318         101.595         103.161         103.435         104.923         107.790         109.070         110.705         112.928         116.193         116.371         124.257         126.612         126.985         128.147         129.591         133.976         135.769         138.108         144.314         145.907         154.381         158.970         166.670         166.822         168.283         172.523         175.200         175.819
   28          44.748          48.220          48.728          55.825          61.766          65.518          65.873          70.233          72.271          75.971          78.227          80.606          81.794          85.223          86.813          88.988          92.283          93.669          96.690          98.207         101.492         102.965         103.444         104.883         107.601         109.044         110.593         112.845         116.212         116.419         124.414         126.576         127.405         128.348         129.802         134.159         135.810         138.179         144.356         146.021         154.242         158.996         166.649         166.820         168.158         172.552         175.134         175.782
   29          44.460          48.010          48.371          55.217          61.792          65.502          65.735          70.059          72.260          75.892          78.301          80.566          81.889          85.086          87.067          89.110          92.324          93.744          96.809          98.089         101.385         102.762         103.461         104.844         107.411         109.022         110.478         112.771         116.235         116.465         124.555         126.556         127.814         128.551         130.013         134.345         135.860         138.255         144.399         146.138         154.103         159.020         166.627         166.818         168.033         172.580         175.066         175.743
   30          44.141          47.796          48.045          54.601          61.802          65.473          65.592          69.872          72.231          75.814          78.386          80.540          81.995          84.929          87.339          89.233          92.362          93.819          96.939          97.965         101.273         102.555         103.481         104.807         107.220         109.003         110.360         112.707         116.260         116.510         124.674         126.556         128.206         128.760         130.223         134.534         135.918         138.336         144.444         146.257         153.962         159.042         166.602         166.815         167.906         172.606         174.997         175.703
   31          43.791          47.577          47.754          53.981          61.791          65.429          65.442          69.680          72.184          75.738          78.484          80.526          82.112          84.762          87.617          89.357          92.398          93.897          97.077          97.833         101.155         102.346         103.504         104.773         107.030         108.988         110.241         112.652         116.289         116.553         124.765         126.583         128.570         128.983         130.431         134.726         135.984         138.423         144.489         146.377         153.820         159.062         166.576         166.811         167.780         172.630         174.926         175.663
   32          43.409          47.355          47.495          53.355          61.755          65.286          65.368          69.489          72.119          75.667          78.593          80.524          82.238          84.592          87.896          89.482          92.431          93.981          97.218          97.696         101.030         102.135         103.528         104.743         106.843         108.976         110.122         112.607         116.319         116.595         124.823         126.642         128.884         129.240         130.636         134.922         136.060         138.516         144.536         146.498         153.678         159.080         166.548         166.806         167.654         172.653         174.854         175.621
   33          42.996          47.129          47.269          52.727          61.692          65.123          65.285          69.309          72.039          75.601          78.715          80.531          82.373          84.421          88.172          89.606          92.462          94.073          97.360          97.553         100.900         101.922         103.552         104.717         106.659         108.966         110.003         112.572         116.353         116.635         124.847         126.734         129.136         129.541         130.839         135.125         136.144         138.614         144.585         146.621         153.535         159.095         166.517         166.799         167.529         172.674         174.780         175.578
   34          42.555          46.901          47.070          52.096          61.597          64.953          65.176          69.148          71.944          75.540          78.848          80.547          82.515          84.252          88.444          89.729          92.492          94.173          97.405          97.499         100.764         101.706         103.578         104.695         106.479         108.957         109.886         112.548         116.388         116.675         124.840         126.857         129.343         129.868         131.038         135.334         136.237         138.720         144.634         146.746         153.391         159.109         166.484         166.790         167.405         172.693         174.704         175.535
   35          42.088          46.670          46.895          51.467          61.466          64.776          65.038          69.016          71.836          75.486          78.989          80.570          82.661          84.086          88.711          89.851          92.521          94.283          97.252          97.631         100.623         101.487         103.603         104.677         106.305         108.951         109.770         112.533         116.425         116.713         124.807         127.006         129.524         130.198         131.232         135.550         136.339         138.831         144.684         146.871         153.246         159.120         166.449         166.776         167.285         172.711         174.627         175.490
   36          41.600          46.437          46.738          50.841          61.295          64.592          64.871          68.920          71.719          75.436          79.138          80.602          82.809          83.926          88.970          89.971          92.550          94.402          97.096          97.753         100.480         101.265         103.629         104.664         106.138         108.945         109.656         112.529         116.464         116.750         124.753         127.175         129.689         130.522         131.422         135.774         136.450         138.949         144.736         146.998         153.101         159.130         166.412         166.755         167.172         172.728         174.549         175.445
   37          41.093          46.202          46.589          50.224          61.081          64.402          64.678          68.862          71.593          75.392          79.291          80.641          82.955          83.777          89.222          90.086          92.579          94.532          96.937          97.861         100.337         101.041         103.654         104.656         105.979         108.940         109.544         112.536         116.505         116.786         124.682         127.361         129.840         130.835         131.607         136.006         136.569         139.073         144.788         147.126         152.956         159.137         166.372         166.720         167.071         172.743         174.469         175.400
   38          40.569          45.965          46.441          49.624          60.820          64.204          64.463          68.844          71.461          75.352          79.445          80.690          83.087          83.649          89.466          90.196          92.611          94.672          96.776          97.950         100.198         100.813         103.680         104.652         105.829         108.935         109.434         112.554         116.548         116.821         124.600         127.558         129.978         131.135         131.787         136.247         136.697         139.204         144.841         147.255         152.811         159.143         166.329         166.664         166.992         172.757         174.388         175.353
   39          40.032          45.726          46.276          49.055          60.510          63.999          64.234          68.863          71.326          75.316          79.596          80.749          83.170          83.577          89.702          90.299          92.646          94.821          96.613          98.015         100.066         100.581         103.705         104.652         105.689         108.931         109.327         112.583         116.593         116.857         124.508         127.764         130.103         131.424         131.962         136.496         136.833         139.341         144.895         147.385         152.665         159.147         166.284         166.581         166.938         172.769         174.305         175.306
   40          39.483          45.484          46.073          48.537          60.150          63.787          63.998          68.915          71.188          75.284          79.741          80.822          83.150          83.615          89.930          90.394          92.686          94.979          96.450          98.050          99.948         100.347         103.730         104.656         105.560         108.926         109.221         112.622         116.639         116.891         124.410         127.977         130.215         131.700         132.132         136.752         136.977         139.485         144.950         147.515         152.520         159.149         166.236         166.478         166.904         172.780         174.222         175.259
   41          38.925          45.240          45.801          48.098          59.741          63.568          63.759          68.997          71.049          75.253          79.873          80.911          83.056          83.734          90.150          90.477          92.732          95.145          96.287          98.049          99.850         100.110         103.754         104.663         105.443         108.920         109.117         112.672         116.687         116.927         124.306         128.194         130.312         131.965         132.296         137.014         137.129         139.636         145.005         147.646         152.376         159.149         166.185         166.361         166.883         172.790         174.137         175.211
   42          38.357          44.994          45.436          47.763          59.287          63.342          63.523          69.103          70.910          75.225          79.990          81.018          82.940          83.880          90.363          90.547          92.786          95.317          96.125          98.009          99.773          99.870         103.779         104.675         105.339         108.914         109.014         112.733         116.737         116.962         124.199         128.416         130.396         132.221         132.455         137.281         137.288         139.793         145.062         147.778         152.232         159.147         166.132         166.238         166.868         172.799         174.051         175.163
   43          37.781          44.744          44.972          47.537          58.790          63.109          63.292          69.229          70.773          75.198          80.090          81.144          82.821          84.035          90.568          90.602          92.849          95.493          95.966          97.929          99.628          99.720         103.803         104.689         105.248         108.907         108.912         112.805         116.788         116.998         124.089         128.639         130.465         132.467         132.609         137.455         137.550         139.958         145.118         147.910         152.089         159.144         166.075         166.111         166.857         172.807         173.963         175.114
   44          37.199          44.427          44.490          47.400          58.257          62.870          63.065          69.372          70.639          75.173          80.171          81.288          82.703          84.194          90.640          90.766          92.923          95.673          95.809          97.814          99.383          99.686         103.826         104.707         105.172         108.811         108.898         112.886         116.842         117.035         123.977         128.864         130.521         132.705         132.758         137.627         137.819         140.129         145.176         148.041         151.948         159.139         165.981         166.016         166.848         172.814         173.875         175.065
   45          36.611          43.825          44.231          47.328          57.693          62.624          62.842          69.529          70.508          75.148          80.237          81.447          82.590          84.354          90.660          90.957          93.008          95.657          95.853          97.671          99.138          99.665         103.850         104.728         105.110         108.712         108.889         112.976         116.897         117.073         123.864         129.090         130.563         132.902         132.936         137.806         138.087         140.308         145.234         148.173         151.809         159.133         165.851         165.954         166.840         172.820         173.786         175.016
   46          36.017          43.185          43.967          47.302          57.104          62.373          62.624          69.698          70.381          75.125          80.289          81.617          82.482          84.513          90.659          91.141          93.105          95.509          96.028          97.512          98.890          99.652         103.874         104.751         105.062         108.613         108.877         113.075         116.954         117.113         123.751         129.317         130.591         133.042         133.161         137.991         138.351         140.495         145.292         148.303         151.673         159.125         165.719         165.889         166.833         172.826         173.696         174.966
   47          35.418          42.519          43.695          47.310          56.495          62.115          62.408          69.875          70.259          75.101          80.330          81.795          82.379          84.671          90.639          91.319          93.214          95.368          96.189          97.350          98.643          99.642         103.898         104.776         105.031         108.514         108.864         113.182         117.013         117.155         123.637         129.543         130.608         133.177         133.380         138.181         138.610         140.690         145.351         148.432         151.541         159.115         165.587         165.821         166.826         172.830         173.605         174.916
   48          34.815          41.835          43.416          47.342          55.871          61.853          62.195          70.060          70.141          75.079          80.362          81.978          82.281          84.827          90.600          91.491          93.332          95.234          96.316          97.209          98.395          99.630         103.921         104.801         105.016         108.417         108.850         113.296         117.074         117.200         123.524         129.768         130.613         133.309         133.593         138.376         138.861         140.893         145.411         148.557         151.414         159.104         165.455         165.750         166.819         172.834         173.513         174.867
   49          34.208          41.138          43.126          47.395          55.237          61.585          61.982          70.029          70.251          75.056          80.387          82.163          82.190          84.981          90.540          91.656          93.459          95.108          96.366          97.134          98.148          99.614         103.945         104.823         105.020         108.320         108.833         113.416         117.137         117.248         123.411         129.991         130.606         133.436         133.802         138.575         139.104         141.103         145.470         148.678         151.294         159.092         165.322         165.676         166.813         172.836         173.420         174.817
   50          33.596          40.430          42.824          47.465          54.599          61.313          61.770          69.923          70.447          75.035          80.406          82.103          82.348          85.133          90.463          91.815          93.593          94.991          96.304          97.164          97.902          99.594         103.969         104.839         105.046         108.224         108.815         113.540         117.202         117.300         123.300         130.213         130.590         133.561         134.005         138.779         139.337         141.321         145.530         148.793         151.184         159.078         165.191         165.600         166.806         172.839         173.327         174.767
   51          32.982          39.713          42.508          47.550          53.961          61.038          61.558          69.822          70.646          75.014          80.419          82.022          82.532          85.282          90.367          91.966          93.733          94.885          96.155          97.273          97.658          99.570         103.993         104.849         105.090         108.128         108.794         113.668         117.270         117.357         123.189         130.432         130.564         133.682         134.204         138.985         139.561         141.545         145.591         148.898         151.087         159.063         165.059         165.520         166.799         172.840         173.232         174.717
   52          32.363          38.989          42.175          47.648          53.327          60.758          61.345          69.727          70.847          74.993          80.428          81.946          82.713          85.429          90.255          92.110          93.873          94.792          95.966          97.416          97.416          99.543         104.017         104.856         105.151         108.034         108.772         113.798         117.340         117.420         123.081         130.530         130.649         133.801         134.397         139.195         139.773         141.774         145.651         148.989         151.006         159.047         164.928         165.437         166.792         172.842         173.137         174.667
   53          31.742          38.258          41.823          47.759          52.703          60.476          61.132          69.637          71.050          74.974          80.433          81.875          82.890          85.572          90.128          92.246          94.009          94.717          95.762          97.178          97.567          99.515         104.042         104.860         105.224         107.941         108.747         113.929         117.412         117.488         122.974         130.488         130.862         133.917         134.586         139.408         139.976         142.008         145.712         149.063         150.947         159.029         164.798         165.352         166.784         172.842         173.042         174.617
   54          31.118          37.522          41.448          47.880          52.093          60.191          60.917          69.554          71.253          74.955          80.433          81.808          83.062          85.713          89.986          92.370          94.130          94.669          95.554          96.945          97.715          99.490         104.066         104.864         105.307         107.850         108.720         114.059         117.486         117.564         122.870         130.439         131.071         134.032         134.769         139.623         140.169         142.243         145.772         149.113         150.915         159.010         164.668         165.264         166.777         172.842         172.946         174.568
   55          30.490          36.781          41.047          48.012          51.502          59.905          60.701          69.476          71.456          74.938          80.430          81.746          83.228          85.850          89.830          92.482          94.214          94.669          95.352          96.717          97.849          99.474         104.091         104.867         105.400         107.760         108.692         114.186         117.563         117.648         122.767         130.384         131.276         134.145         134.947         139.840         140.354         142.480         145.833         149.136         150.915         158.991         164.539         165.173         166.769         172.842         172.849         174.518
   56          29.861          36.035          40.617          48.154          50.933          59.616          60.484          69.404          71.659          74.922          80.424          81.688          83.387          85.982          89.663          92.578          94.244          94.732          95.162          96.497          97.963          99.471         104.115         104.869         105.499         107.672         108.661         114.310         117.642         117.741         122.667         130.323         131.476         134.258         135.120         140.059         140.530         142.716         145.893         149.130         150.948         158.970         164.411         165.079         166.760         172.752         172.842         174.469
   57          29.228          35.285          40.156          48.305          50.390          59.327          60.266          69.338          71.860          74.908          80.413          81.634          83.538          86.111          89.485          92.654          94.233          94.842          94.989          96.286          98.049          99.489         104.139         104.870         105.605         107.587         108.629         114.429         117.723         117.844         122.570         130.258         131.670         134.370         135.286         140.279         140.699         142.949         145.954         149.097         151.013         158.948         164.284         164.983         166.752         172.655         172.841         174.420
   58          28.594          34.531          39.661          48.465          49.878          59.038          60.047          69.278          72.059          74.896          80.400          81.584          83.680          86.235          89.297          92.705          94.205          94.842          94.969          96.090          98.102          99.532         104.163         104.869         105.716         107.505         108.595         114.540         117.807         117.957         122.476         130.188         131.857         134.483         135.446         140.500         140.861         143.179         146.014         149.040         151.107         158.925         164.159         164.884         166.743         172.557         172.839         174.371
   59          27.957          33.773          39.129          48.632          49.398          58.749          59.826          69.223          72.255          74.886          80.382          81.538          83.812          86.353          89.101          92.725          94.173          94.726          95.089          95.921          98.120          99.602         104.187         104.866         105.830         107.426         108.559         114.644         117.893         118.082         122.385         130.115         132.038         134.596         135.599         140.722         141.018         143.405         146.074         148.965         151.224         158.901         164.034         164.783         166.733         172.460         172.838         174.323
   60          27.317          33.012          38.561          48.808          48.953          58.460          59.605          69.173          72.448          74.879          80.361          81.495          83.934          86.466          88.899          92.711          94.142          94.648          95.170          95.804          98.108          99.696         104.210         104.861         105.948         107.351         108.521         114.740         117.982         118.218         122.296         130.038         132.211         134.711         135.746         140.944         141.169         143.624         146.134         148.876         151.361         158.876         163.911         164.679         166.723         172.362         172.836         174.275
   61          26.676          32.247          37.955          48.544          48.990          58.172          59.382          69.130          72.636          74.875          80.336          81.455          84.044          86.571          88.691          92.664          94.114          94.607          95.165          95.785          98.069          99.809         104.232         104.854         106.069         107.279         108.483         114.826         118.073         118.365         122.211         129.960         132.376         134.827         135.885         141.167         141.315         143.837         146.193         148.777         151.513         158.851         163.790         164.573         166.713         172.263         172.835         174.227
   62          26.033          31.479          37.312          48.169          49.180          57.887          59.159          69.091          72.820          74.875          80.306          81.418          84.142          86.669          88.480          92.586          94.086          94.602          95.077          95.862          98.010          99.934         104.252         104.845         106.190         107.213         108.443         114.902         118.166         118.523         122.129         129.880         132.532         134.946         136.016         141.389         141.457         144.042         146.252         148.672         151.678         158.825         163.670         164.465         166.703         172.165         172.832         174.180
   63          25.387          30.708          36.634          47.830          49.375          57.603          58.935          69.058          72.998          74.879          80.272          81.385          84.227          86.757          88.266          92.487          94.059          94.627          94.953          95.988          97.937         100.067         104.271         104.834         106.313         107.152         108.402         114.968         118.261         118.692         122.050         129.799         132.678         135.068         136.139         141.595         141.611         144.238         146.311         148.563         151.852         158.798         163.551         164.356         166.692         172.067         172.830         174.133
   64          24.740          29.933          35.921          47.525          49.576          57.322          58.710          69.030          73.169          74.888          80.233          81.354          84.297          86.835          88.053          92.375          94.027          94.674          94.827          96.134          97.852         100.205         104.288         104.820         106.435         107.096         108.361         115.025         118.359         118.871         121.975         129.717         132.815         135.193         136.253         141.730         141.833         144.426         146.369         148.453         152.034         158.770         163.435         164.244         166.681         171.969         172.828         174.087
   65          24.091          29.156          35.177          47.251          49.782          57.044          58.486          69.007          73.332          74.902          80.189          81.327          84.353          86.901          87.842          92.258          93.986          94.716          94.736          96.286          97.760         100.343         104.303         104.803         106.557         107.048         108.320         115.072         118.459         119.059         121.903         129.636         132.942         135.321         136.359         141.861         142.054         144.605         146.426         148.342         152.223         158.742         163.320         164.131         166.669         171.871         172.825         174.041
   66          23.441          28.376          34.403          47.007          49.993          56.771          58.261          68.990          73.486          74.924          80.139          81.302          84.392          86.954          87.634          92.143          93.929          94.631          94.810          96.440          97.662         100.481         104.314         104.784         106.677         107.006         108.278         115.109         118.560         119.255         121.834         129.555         133.059         135.452         136.455         141.988         142.273         144.773         146.483         148.234         152.417         158.713         163.207         164.016         166.657         171.773         172.823         173.996
   67          22.788          27.594          33.602          46.790          50.207          56.501          58.036          68.978          73.630          74.953          80.083          81.280          84.414          86.993          87.432          92.035          93.852          94.578          94.891          96.594          97.560         100.616         104.323         104.763         106.794         106.973         108.238         115.139         118.664         119.457         121.769         129.477         133.165         135.586         136.542         142.113         142.492         144.932         146.539         148.127         152.616         158.684         163.096         163.900         166.644         171.676         172.820         173.952
   68          22.134          26.809          32.777          46.599          50.424          56.237          57.812          68.972          73.762          74.990          80.019          81.262          84.419          87.015          87.238          91.940          93.757          94.555          94.976          96.746          97.455         100.747         104.328         104.740         106.909         106.948         108.198         115.160         118.769         119.664         121.707         129.400         133.262         135.724         136.618         142.236         142.708         145.079         146.594         148.025         152.818         158.654         162.987         163.783         166.631         171.579         172.818         173.908
   69          21.479          26.021          31.929          46.431          50.643          55.979          57.588          68.970          73.881          75.038          79.948          81.246          84.406          87.020          87.054          91.859          93.649          94.559          95.064          96.894          97.349         100.873         104.329         104.715         106.931         107.020         108.161         115.173         118.875         119.876         121.648         129.327         133.349         135.863         136.684         142.355         142.924         145.215         146.649         147.929         153.023         158.624         162.880         163.665         166.618         171.483         172.815         173.865
   70          20.822          25.231          31.061          46.285          50.864          55.727          57.365          68.975          73.986          75.095          79.868          81.233          84.375          86.882          87.006          91.797          93.535          94.582          95.152          97.039          97.242         100.994         104.326         104.688         106.924         107.126         108.127         115.179         118.983         120.090         121.593         129.257         133.426         136.005         136.739         142.473         143.137         145.338         146.702         147.838         153.229         158.594         162.775         163.546         166.604         171.387         172.812         173.823
   71          20.164          24.439          30.175          46.158          51.084          55.483          57.143          68.984          74.078          75.163          79.778          81.224          84.326          86.722          86.974          91.754          93.418          94.621          95.240          97.135          97.179         101.108         104.319         104.660         106.927         107.225         108.098         115.178         119.092         120.305         121.541         129.192         133.495         136.148         136.783         142.587         143.347         145.449         146.754         147.755         153.437         158.563         162.673         163.426         166.589         171.293         172.809         173.781
   72          19.504          23.645          29.273          46.049          51.302          55.249          56.922          68.999          74.156          75.239          79.678          81.218          84.261          86.575          86.924          91.730          93.301          94.673          95.328          97.028          97.313         101.215         104.307         104.631         106.940         107.316         108.075         115.172         119.201         120.521         121.492         129.133         133.556         136.292         136.816         142.700         143.556         145.547         146.806         147.681         153.645         158.532         162.573         163.307         166.575         171.199         172.806         173.741
   73          18.843          22.848          28.356          45.956          51.517          55.025          56.703          69.020          74.223          75.323          79.566          81.215          84.181          86.442          86.856          91.727          93.187          94.735          95.413          96.921          97.442         101.313         104.290         104.601         106.962         107.395         108.061         115.159         119.311         120.735         121.446         129.080         133.609         136.437         136.838         142.810         143.761         145.631         146.856         147.618         153.854         158.501         162.475         163.187         166.560         171.106         172.803         173.701
   74          18.181          22.050          27.425          45.877          51.725          54.815          56.486          69.047          74.280          75.412          79.442          81.216          84.091          86.321          86.771          91.743          93.076          94.805          95.497          96.816          97.565         101.404         104.270         104.572         106.995         107.459         108.060         115.141         119.422         120.946         121.404         129.035         133.655         136.581         136.848         142.918         143.964         145.700         146.905         147.565         154.062         158.470         162.380         163.067         166.544         171.014         172.800         173.663
   75          17.518          21.249          26.483          45.813          51.922          54.622          56.271          69.080          74.329          75.504          79.305          81.221          83.992          86.211          86.672          91.776          92.968          94.883          95.578          96.712          97.681         101.484         104.246         104.543         107.037         107.505         108.076         115.118         119.532         121.153         121.365         128.998         133.694         136.724         136.846         143.024         144.163         145.754         146.953         147.524         154.268         158.439         162.288         162.948         166.528         170.923         172.797         173.625
   76          16.853          20.447          25.530          45.760          52.103          54.451          56.058          69.119          74.371          75.598          79.155          81.229          83.889          86.110          86.560          91.826          92.865          94.968          95.656          96.611          97.791         101.556         104.218         104.515         107.087         107.532         108.108         115.090         119.642         121.329         121.355         128.970         133.727         136.832         136.866         143.128         144.359         145.794         147.000         147.496         154.473         158.408         162.198         162.830         166.512         170.834         172.794         173.589
   77          16.188          19.643          24.568          45.719          52.260          54.311          55.848          69.164          74.408          75.691          78.990          81.242          83.783          86.017          86.436          91.890          92.767          95.058          95.732          96.511          97.894         101.617         104.187         104.490         107.147         107.542         108.155         115.058         119.751         121.295         121.550         128.953         133.755         136.806         137.005         143.230         144.551         145.819         147.045         147.480         154.675         158.377         162.111         162.712         166.495         170.747         172.791         173.554
   78          15.521          18.837          23.596          45.689          52.381          54.212          55.641          69.215          74.442          75.782          78.810          81.259          83.680          85.929          86.304          91.967          92.673          95.153          95.805          96.413          97.989         101.667         104.153         104.466         107.214         107.539         108.213         115.022         119.859         121.265         121.737         128.946         133.778         136.769         137.143         143.329         144.739         145.831         147.089         147.475         154.875         158.346         162.027         162.596         166.478         170.661         172.788         173.520
   79          14.853          18.030          22.616          45.668          52.455          54.165          55.437          69.273          74.472          75.870          78.617          81.280          83.579          85.847          86.164          92.055          92.584          95.252          95.874          96.319          98.077         101.705         104.118         104.446         107.289         107.528         108.276         114.982         119.965         121.238         121.916         128.952         133.796         136.721         137.277         143.426         144.923         145.832         147.132         147.480         155.071         158.315         161.946         162.481         166.460         170.577         172.784         173.487
   80          14.184          17.221          21.629          45.655          52.475          54.177          55.238          69.339          74.500          75.955          78.409          81.305          83.484          85.768          86.018          92.151          92.499          95.354          95.941          96.227          98.157         101.733         104.080         104.430         107.370         107.512         108.343         114.938         120.069         121.215         122.084         128.971         133.810         136.661         137.408         143.521         145.101         145.823         147.173         147.494         155.263         158.285         161.868         162.369         166.443         170.495         172.781         173.455
   81          13.515          16.410          20.636          45.651          52.443          54.244          55.042          69.411          74.527          76.035          78.188          81.336          83.396          85.692          85.868          92.255          92.419          95.460          96.003          96.138          98.229         101.749         104.042         104.418         107.457         107.493         108.411         114.891         120.170         121.194         122.241         129.004         133.820         136.590         137.535         143.613         145.275         145.806         147.213         147.515         155.451         158.255         161.793         162.258         166.425         170.416         172.778         173.425
   82          12.844          15.598          19.636          45.653          52.371          54.355          54.851          69.491          74.551          76.110          77.955          81.370          83.316          85.618          85.715          92.343          92.365          95.568          96.044          96.071          98.294         101.754         104.003         104.410         107.473         107.550         108.478         114.841         120.267         121.177         122.386         129.050         133.827         136.508         137.658         143.702         145.444         145.783         147.251         147.540         155.634         158.226         161.721         162.150         166.407         170.338         172.774         173.396
   83          12.173          14.785          18.631          45.662          52.274          54.495          54.664          69.579          74.575          76.181          77.710          81.409          83.243          85.547          85.560          92.272          92.479          95.677          95.967          96.122          98.351         101.749         103.964         104.406         107.452         107.646         108.544         114.789         120.360         121.164         122.519         129.111         133.831         136.416         137.777         143.789         145.606         145.756         147.288         147.569         155.812         158.197         161.652         162.045         166.388         170.263         172.771         173.368
   84          11.501          13.971          17.620          45.676          52.162          54.483          54.652          69.674          74.598          76.246          77.455          81.453          83.178          85.404          85.477          92.205          92.595          95.787          95.888          96.175          98.400         101.733         103.925         104.406         107.432         107.746         108.607         114.734         120.448         121.156         122.640         129.186         133.832         136.315         137.891         143.873         145.726         145.763         147.323         147.600         155.983         158.169         161.586         161.942         166.370         170.192         172.767         173.342
   85          10.828          13.155          16.605          45.695          52.042          54.308          54.818          69.778          74.619          76.306          77.190          81.501          83.122          85.248          85.410          92.142          92.714          95.813          95.898          96.226          98.442         101.709         103.887         104.410         107.412         107.848         108.667         114.677         120.529         121.153         122.748         129.274         133.832         136.204         138.000         143.954         145.694         145.913         147.356         147.632         156.148         158.141         161.523         161.844         166.352         170.122         172.764         173.318
   86          10.155          12.338          15.586          45.718          51.921          54.140          54.987          69.890          74.640          76.361          76.918          81.554          83.072          85.093          85.344          92.083          92.833          95.741          96.009          96.273          98.476         101.676         103.850         104.417         107.393         107.951         108.724         114.619         120.602         121.156         122.844         129.376         133.829         136.086         138.103         144.032         145.662         146.056         147.388         147.664         156.307         158.115         161.464         161.749         166.333         170.057         172.760         173.295
   87           9.481          11.520          14.563          45.745          51.801          53.978          55.155          70.011          74.660          76.411          76.639          81.610          83.030          84.939          85.280          92.028          92.952          95.673          96.119          96.317          98.503         101.637         103.814         104.427         107.375         108.056         108.778         114.560         120.666         121.166         122.928         129.490         133.825         135.960         138.201         144.107         145.629         146.192         147.419         147.696         156.458         158.089         161.409         161.658         166.315         169.994         172.757         173.273
   88           8.806          10.701          13.536          45.774          51.685          53.823          55.320          70.141          74.678          76.355          76.456          81.671          82.993          84.787          85.219          91.978          93.068          95.609          96.228          96.358          98.523         101.592         103.780         104.439         107.358         108.159         108.829         114.500         120.718         121.184         123.000         129.615         133.819         135.827         138.294         144.179         145.596         146.321         147.447         147.727         156.601         158.065         161.356         161.572         166.298         169.935         172.753         173.253
   89           8.131           9.882          12.506          45.805          51.574          53.677          55.478          70.280          74.696          76.068          76.496          81.736          82.963          84.638          85.160          91.931          93.182          95.549          96.335          96.395          98.536         101.542         103.747         104.453         107.343         108.262         108.875         114.440         120.759         121.211         123.062         129.750         133.813         135.689         138.380         144.247         145.564         146.441         147.474         147.756         156.736         158.041         161.307         161.491         166.280         169.879         172.750         173.235
   90           7.455           9.061          11.473          45.837          51.470          53.538          55.629          70.429          74.712          75.777          76.531          81.805          82.938          84.492          85.104          91.888          93.292          95.493          96.430          96.439          98.543         101.490         103.717         104.468         107.329         108.362         108.919         114.381         120.789         121.245         123.114         129.892         133.806         135.547         138.460         144.312         145.533         146.553         147.499         147.784         156.862         158.019         161.262         161.415         166.264         169.827         172.747         173.218
   91           6.779           8.240          10.438          45.870          51.373          53.409          55.771          70.587          74.728          75.485          76.563          81.877          82.917          84.348          85.052          91.849          93.398          95.441          96.462          96.540          98.544         101.437         103.688         104.483         107.316         108.458         108.958         114.323         120.810         121.284         123.158         130.040         133.798         135.401         138.534         144.373         145.503         146.657         147.523         147.809         156.979         157.998         161.221         161.344         166.248         169.779         172.743         173.202
   92           6.102           7.418           9.401          45.903          51.284          53.290          55.902          70.754          74.742          75.192          76.590          81.951          82.901          84.209          85.003          91.814          93.497          95.394          96.490          96.636          98.540         101.384         103.662         104.498         107.304         108.550         108.994         114.268         120.824         121.325         123.194         130.191         133.790         135.255         138.601         144.431         145.474         146.751         147.545         147.833         157.086         157.979         161.183         161.279         166.233         169.736         172.740         173.189
   93           5.425           6.595           8.361          45.934          51.203          53.181          56.022          70.931          74.755          74.900          76.614          82.029          82.888          84.074          84.957          91.783          93.589          95.352          96.516          96.728          98.531         101.332         103.639         104.513         107.294         108.637         109.026         114.215         120.834         121.367         123.224         130.342         133.783         135.110         138.661         144.484         145.447         146.836         147.565         147.854         157.183         157.962         161.149         161.220         166.219         169.696         172.737         173.176
   94           4.748           5.772           7.320          45.964          51.131          53.084          56.130          71.118          74.610          74.767          76.634          82.107          82.878          83.944          84.916          91.755          93.674          95.313          96.538          96.813          98.520         101.282         103.618         104.527         107.285         108.716         109.055         114.165         120.840         121.406         123.248         130.492         133.776         134.968         138.715         144.532         145.421         146.911         147.584         147.873         157.270         157.946         161.119         161.167         166.206         169.661         172.735         173.166
   95           4.070           4.948           6.277          45.992          51.068          52.997          56.225          71.314          74.322          74.777          76.651          82.187          82.870          83.821          84.880          91.732          93.750          95.280          96.558          96.892          98.505         101.237         103.600         104.539         107.278         108.788         109.079         114.121         120.843         121.442         123.266         130.635         133.769         134.832         138.762         144.576         145.398         146.976         147.600         147.890         157.347         157.932         161.092         161.121         166.194         169.630         172.732         173.156
   96           3.392           4.124           5.233          46.016          51.015          52.923          56.307          71.520          74.037          74.786          76.665          82.266          82.865          83.705          84.849          91.711          93.815          95.252          96.575          96.962          98.489         101.196         103.584         104.551         107.271         108.850         109.100         114.081         120.846         121.474         123.281         130.768         133.763         134.705         138.802         144.614         145.376         147.031         147.615         147.904         157.412         157.920         161.070         161.082         166.184         169.604         172.730         173.148
   97           2.714           3.300           4.187          46.037          50.971          52.862          56.374          71.735          73.757          74.793          76.676          82.342          82.861          83.598          84.823          91.695          93.871          95.228          96.588          97.022          98.474         101.162         103.571         104.560         107.266         108.903         109.117         114.047         120.847         121.501         123.292         130.888         133.758         134.593         138.834         144.647         145.358         147.076         147.627         147.916         157.465         157.910         161.049         161.051         166.176         169.583         172.728         173.142
   98           2.036           2.475           3.141          46.054          50.936          52.814          56.427          71.958          73.482          74.799          76.685          82.412          82.858          83.505          84.802          91.682          93.914          95.209          96.599          97.071          98.459         101.134         103.561         104.567         107.262         108.945         109.130         114.020         120.848         121.523         123.300         130.988         133.754         134.498         138.860         144.674         145.342         147.111         147.637         147.925         157.507         157.902         161.024         161.037         166.169         169.566         172.727         173.137
   99           1.357           1.650           2.095          46.066          50.912          52.779          56.465          72.189          73.214          74.803          76.691          82.470          82.856          83.430          84.787          91.673          93.946          95.196          96.607          97.107          98.448         101.113         103.554         104.573         107.259         108.976         109.140         114.001         120.849         121.539         123.305         131.064         133.751         134.426         138.878         144.693         145.331         147.136         147.645         147.931         157.538         157.896         161.006         161.027         166.165         169.554         172.726         173.134
  100           0.679           0.825           1.047          46.074          50.897          52.758          56.488          72.424          72.957          74.805          76.694          82.510          82.855          83.380          84.778          91.667          93.966          95.188          96.611          97.130          98.440         101.101         103.550         104.576         107.257         108.994         109.145         113.988         120.849         121.548         123.309         131.112         133.749         134.380         138.889         144.705         145.324         147.151         147.649         147.935         157.556         157.893         160.995         161.020         166.162         169.547         172.725         173.132
  101           0.000           0.000           0.000          46.076          50.892          52.751          56.496          72.603          72.770          74.806          76.696          82.524          82.855          83.362          84.775          91.666          93.972          95.185          96.613          97.137          98.438         101.096         103.548         104.577         107.257         109.000         109.147         113.984         120.849         121.551         123.310         131.128         133.749         134.365         138.892         144.709         145.321         147.156         147.651         147.936         157.562         157.892         160.991         161.018         166.161         169.544         172.725         173.131
  102           0.711           0.736           1.137          46.053          50.776          52.861          56.510          72.548          72.772          74.810          76.726          82.437          82.948          83.358          84.779          91.663          93.971          95.186          96.606          97.147          98.436         101.099         103.532         104.593         107.251         109.005         109.147         113.981         120.855         121.553         123.313         131.125         133.748         134.365         138.894         144.702         145.317         147.155         147.658         147.940         157.561         157.894         160.956         161.055         166.160         169.542         172.725         173.131
  103           1.422           1.471           2.274          45.985          50.484          53.134          56.552          72.388          72.776          74.820          76.814          82.278          83.124          83.345          84.791          91.653          93.970          95.187          96.586          97.174          98.429         101.108         103.486         104.637         107.233         109.019         109.146         113.970         120.871         121.558         123.321         131.115         133.744         134.364         138.897         144.680         145.306         147.150         147.679         147.950         157.558         157.900         160.912         161.104         166.157         169.535         172.725         173.133
  104           2.133           2.206           3.411          45.873          50.099          53.486          56.621          72.139          72.783          74.831          76.948          82.110          83.320          83.323          84.810          91.638          93.966          95.189          96.558          97.216          98.419         101.122         103.418         104.703         107.204         109.041         109.144         113.952         120.899         121.567         123.336         131.098         133.739         134.363         138.904         144.645         145.286         147.144         147.715         147.966         157.553         157.910         160.870         161.155         166.153         169.524         172.726         173.136
  105           2.843           2.941           4.547          45.718          49.666          53.873          56.714          71.819          72.793          74.840          77.114          81.945          83.294          83.526          84.836          91.617          93.962          95.192          96.524          97.268          98.405         101.142         103.333         104.783         107.166         109.071         109.142         113.927         120.938         121.580         123.356         131.075         133.731         134.362         138.912         144.597         145.260         147.134         147.762         147.987         157.545         157.924         160.828         161.209         166.146         169.508         172.727         173.140
  106           3.553           3.676           5.683          45.524          49.207          54.274          56.830          71.444          72.805          74.845          77.297          81.788          83.259          83.737          84.868          91.590          93.956          95.196          96.488          97.329          98.387         101.167         103.237         104.873         107.121         109.106         109.138         113.895         120.988         121.596         123.382         131.046         133.720         134.360         138.923         144.538         145.226         147.123         147.821         148.014         157.536         157.941         160.788         161.265         166.138         169.488         172.728         173.145
  107           4.263           4.410           6.817          45.292          48.729          54.678          56.966          71.025          72.821          74.844          77.486          81.641          83.217          83.952          84.904          91.557          93.947          95.200          96.452          97.394          98.365         101.197         103.136         104.966         107.069         109.134         109.147         113.856         121.048         121.615         123.414         131.010         133.706         134.358         138.937         144.468         145.186         147.111         147.890         148.044         157.525         157.963         160.749         161.322         166.128         169.464         172.729         173.151
  108           4.972           5.143           7.950          45.026          48.239          55.081          57.119          70.571          72.839          74.839          77.670          81.507          83.171          84.171          84.945          91.520          93.937          95.206          96.417          97.464          98.340         101.231         103.030         105.060         107.013         109.130         109.191         113.811         121.119         121.637         123.451         130.969         133.689         134.355         138.953         144.390         145.141         147.097         147.968         148.079         157.512         157.988         160.711         161.382         166.116         169.436         172.730         173.159
  109           5.681           5.876           9.082          44.729          47.738          55.479          57.285          70.088          72.859          74.829          77.843          81.390          83.121          84.391          84.989          91.479          93.924          95.212          96.383          97.537          98.313         101.270         102.922         105.152         106.955         109.124         109.237         113.760         121.199         121.662         123.494         130.923         133.669         134.353         138.972         144.304         145.090         147.082         148.053         148.115         157.496         158.016         160.675         161.444         166.103         169.403         172.732         173.167
  110           6.389           6.608          10.213          44.403          47.229          55.869          57.463          69.581          72.882          74.815          77.996          81.292          83.067          84.614          85.035          91.433          93.909          95.219          96.352          97.613          98.282         101.313         102.813         105.240         106.899         109.118         109.285         113.703         121.289         121.689         123.543         130.871         133.645         134.350         138.993         144.212         145.036         147.066         148.143         148.154         157.479         158.048         160.639         161.508         166.088         169.367         172.734         173.175
  111           7.096           7.339          11.341          44.052          46.712          56.250          57.649          69.056          72.908          74.796          78.124          81.217          83.011          84.837          85.083          91.383          93.891          95.226          96.324          97.690          98.250         101.360         102.705         105.320         106.845         109.112         109.334         113.641         121.388         121.719         123.598         130.815         133.617         134.346         139.016         144.115         144.977         147.050         148.195         148.239         157.461         158.083         160.605         161.574         166.071         169.327         172.735         173.185
  112           7.803           8.069          12.468          43.677          46.188          56.618          57.841          68.516          72.936          74.773          78.222          81.168          82.952          85.061          85.133          91.331          93.870          95.235          96.299          97.768          98.215         101.410         102.597         105.389         106.798         109.104         109.383         113.573         121.496         121.750         123.658         130.755         133.584         134.342         139.042         144.014         144.916         147.034         148.236         148.338         157.440         158.120         160.571         161.642         166.053         169.284         172.737         173.195
  113           8.508           8.797          13.592          43.280          45.657          56.972          58.037          67.965          72.966          74.745          78.288          81.148          82.892          85.183          85.284          91.276          93.845          95.244          96.278          97.847          98.179         101.463         102.491         105.445         106.761         109.096         109.431         113.501         121.612         121.784         123.723         130.690         133.547         134.338         139.070         143.908         144.852         147.017         148.278         148.441         157.418         158.161         160.539         161.713         166.034         169.237         172.740         173.206
  114           9.213           9.525          14.715          42.865          45.121          57.306          58.236          67.408          72.998          74.712          78.322          81.156          82.831          85.234          85.506          91.219          93.817          95.253          96.260          97.927          98.141         101.519         102.387         105.485         106.737         109.087         109.479         113.425         121.734         121.819         123.794         130.623         133.505         134.334         139.100         143.801         144.787         147.000         148.321         148.545         157.395         158.203         160.506         161.785         166.013         169.188         172.742         173.217
  115           9.917          10.251          15.834          42.431          44.578          57.616          58.435          66.852          73.033          74.674          78.324          81.192          82.769          85.285          85.727          91.160          93.786          95.263          96.245          98.006          98.102         101.577         102.286         105.506         106.728         109.077         109.524         113.346         121.855         121.864         123.871         130.552         133.457         134.330         139.133         143.691         144.720         146.982         148.363         148.652         157.370         158.248         160.475         161.859         165.990         169.135         172.744         173.229
  116          10.619          10.976          16.951          41.981          44.031          57.897          58.634          66.302          73.069          74.630          78.298          81.251          82.707          85.335          85.944          91.101          93.751          95.274          96.234          98.063          98.086         101.637         102.187         105.506         106.737         109.066         109.569         113.263         121.892         122.000         123.953         130.480         133.403         134.326         139.168         143.579         144.653         146.965         148.404         148.759         157.343         158.296         160.444         161.935         165.967         169.081         172.746         173.240
  117          11.320          11.699          18.065          41.517          43.477          58.137          58.830          65.769          73.107          74.580          78.250          81.329          82.644          85.385          86.158          91.041          93.713          95.285          96.226          98.023          98.165         101.699         102.090         105.488         106.761         109.055         109.611         113.177         121.930         122.140         124.040         130.405         133.344         134.321         139.205         143.466         144.585         146.947         148.445         148.866         157.316         158.344         160.413         162.013         165.942         169.023         172.749         173.252
  118          12.020          12.420          19.176          41.039          42.919          58.327          59.022          65.265          73.147          74.523          78.184          81.422          82.582          85.434          86.368          90.982          93.672          95.297          96.220          97.982          98.243         101.762         101.997         105.453         106.800         109.042         109.652         113.089         121.969         122.285         124.132         130.329         133.278         134.316         139.245         143.352         144.519         146.930         148.486         148.973         157.287         158.395         160.383         162.092         165.916         168.964         172.751         173.265
  119          12.718          13.140          20.283          40.548          42.356          58.448          59.211          64.808          73.187          74.459          78.106          81.526          82.520          85.483          86.572          90.925          93.627          95.309          96.218          97.941          98.320         101.826         101.907         105.405         106.850         109.030         109.691         113.000         122.007         122.433         124.229         130.252         133.206         134.311         139.287         143.238         144.452         146.913         148.525         149.079         157.257         158.447         160.353         162.173         165.889         168.903         172.754         173.277
  120          13.415          13.857          21.387          40.045          41.788          58.481          59.394          64.417          73.229          74.388          78.020          81.637          82.459          85.530          86.771          90.870          93.579          95.322          96.218          97.901          98.395         101.820         101.891         105.347         106.907         109.016         109.727         112.909         122.046         122.583         124.331         130.175         133.128         134.306         139.330         143.124         144.387         146.895         148.563         149.184         157.227         158.500         160.324         162.255         165.861         168.841         172.756         173.289
  121          14.110          14.572          22.486          39.532          41.215          58.407          59.572          64.113          73.272          74.308          77.929          81.752          82.399          85.575          86.962          90.818          93.528          95.334          96.221          97.861          98.469         101.736         101.956         105.282         106.970         109.002         109.761         112.817         122.084         122.735         124.437         130.099         133.043         134.302         139.376         143.010         144.324         146.879         148.599         149.287         157.196         158.554         160.294         162.338         165.832         168.777         172.759         173.301
  122          14.804          15.285          23.582          39.009          40.638          58.210          59.743          63.910          73.316          74.221          77.836          81.869          82.339          85.620          87.145          90.770          93.474          95.347          96.225          97.821          98.541         101.656         102.021         105.212         107.037         108.987         109.794         112.725         122.122         122.888         124.548         130.025         132.952         134.297         139.424         142.896         144.263         146.862         148.634         149.389         157.164         158.609         160.264         162.422         165.802         168.712         172.761         173.313
  123          15.495          15.996          24.673          38.477          40.057          57.889          59.907          63.811          73.359          74.125          77.745          81.986          82.282          85.663          87.318          90.728          93.417          95.360          96.232          97.782          98.612         101.579         102.086         105.139         107.105         108.971         109.824         112.633         122.159         123.040         124.661         129.952         132.854         134.292         139.474         142.783         144.203         146.846         148.668         149.488         157.133         158.664         160.235         162.507         165.771         168.647         172.764         173.324
  124          16.184          16.704          25.759          37.936          39.472          57.454          60.064          63.805          73.403          74.021          77.656          82.102          82.225          85.704          87.482          90.692          93.357          95.373          96.240          97.744          98.679         101.506         102.151         105.065         107.173         108.955         109.852         112.543         122.195         123.191         124.778         129.883         132.750         134.287         139.526         142.670         144.147         146.830         148.700         149.584         157.101         158.720         160.205         162.592         165.740         168.582         172.766         173.335
  125          16.872          17.409          26.841          37.387          38.882          56.922          60.213          63.874          73.447          73.909          77.570          82.171          82.216          85.743          87.633          90.664          93.295          95.387          96.249          97.706          98.745         101.437         102.214         104.991         107.241         108.938         109.878         112.453         122.230         123.340         124.897         129.818         132.639         134.283         139.580         142.559         144.092         146.814         148.731         149.678         157.069         158.775         160.175         162.677         165.709         168.517         172.769         173.346
  126          17.556          18.111          27.917          36.830          38.290          56.314          60.354          64.000          73.490          73.789          77.490          82.118          82.326          85.780          87.772          90.644          93.230          95.400          96.260          97.670          98.807         101.371         102.276         104.917         107.308         108.920         109.902         112.366         122.263         123.486         125.016         129.758         132.522         134.278         139.636         142.449         144.041         146.800         148.759         149.767         157.038         158.831         160.145         162.762         165.677         168.453         172.771         173.356
  127          18.239          18.809          28.987          36.266          37.695          55.644          60.487          64.166          73.533          73.662          77.416          82.068          82.433          85.815          87.897          90.635          93.164          95.412          96.271          97.636          98.867         101.309         102.336         104.846         107.373         108.903         109.924         112.280         122.296         123.628         125.134         129.705         132.399         134.274         139.693         142.340         143.992         146.785         148.786         149.853         157.007         158.887         160.114         162.846         165.645         168.390         172.773         173.366
  128          18.918          19.504          30.050          35.696          37.097          54.927          60.611          64.357          73.529          73.574          77.347          82.020          82.535          85.848          88.007          90.637          93.095          95.425          96.283          97.603          98.923         101.251         102.394         104.777         107.435         108.885         109.944         112.198         122.326         123.767         125.251         129.660         132.270         134.270         139.752         142.233         143.947         146.772         148.812         149.935         156.977         158.942         160.083         162.929         165.612         168.328         172.775         173.376
  129          19.595          20.194          31.106          35.119          36.499          54.172          60.726          64.563          73.392          73.614          77.285          81.975          82.633          85.879          88.102          90.650          93.025          95.437          96.295          97.571          98.976         101.196         102.450         104.711         107.495         108.867         109.962         112.120         122.355         123.900         125.363         129.624         132.136         134.266         139.812         142.128         143.905         146.759         148.835         150.013         156.947         158.997         160.051         163.010         165.580         168.269         172.777         173.384
  130          20.268          20.879          32.150          34.538          35.903          53.387          60.833          64.778          73.251          73.652          77.229          81.932          82.724          85.908          88.182          90.674          92.954          95.449          96.308          97.542          99.025         101.146         102.503         104.648         107.552         108.848         109.979         112.045         122.382         124.029         125.470         129.600         131.997         134.262         139.874         142.025         143.866         146.747         148.857         150.085         156.919         159.051         160.019         163.089         165.548         168.211         172.779         173.392
  131          20.938          21.559          33.174          33.951          35.319          52.576          60.930          64.995          73.109          73.688          77.179          81.893          82.810          85.934          88.248          90.710          92.881          95.460          96.320          97.514          99.071         101.099         102.553         104.590         107.606         108.830         109.994         111.975         122.408         124.151         125.570         129.588         131.854         134.259         139.936         141.924         143.830         146.736         148.877         150.153         156.893         159.105         159.986         163.165         165.516         168.157         172.781         173.400
  132          21.603          22.233          33.360          34.079          34.847          51.744          61.018          65.208          72.967          73.722          77.135          81.856          82.889          85.958          88.299          90.755          92.809          95.470          96.332          97.489          99.113         101.057         102.600         104.535         107.656         108.812         110.007         111.909         122.431         124.268         125.660         129.591         131.707         134.255         139.999         141.827         143.798         146.726         148.895         150.215         156.868         159.158         159.953         163.237         165.485         168.106         172.782         173.407
  133          22.263          22.898          32.766          33.971          35.379          50.893          61.098          65.414          72.828          73.753          77.096          81.823          82.962          85.980          88.339          90.808          92.736          95.480          96.343          97.466          99.151         101.019         102.643         104.486         107.702         108.795         110.019         111.850         122.451         124.376         125.740         129.608         131.557         134.252         140.063         141.732         143.769         146.717         148.911         150.271         156.845         159.210         159.918         163.306         165.456         168.059         172.784         173.413
  134          22.918          23.554          32.170          33.413          36.356          50.028          61.167          65.609          72.695          73.781          77.063          81.794          83.027          85.999          88.368          90.867          92.665          95.489          96.354          97.445          99.185         100.985         102.681         104.442         107.744         108.779         110.029         111.796         122.470         124.477         125.808         129.641         131.404         134.250         140.126         141.642         143.743         146.708         148.925         150.322         156.824         159.261         159.884         163.369         165.427         168.016         172.785         173.419
  135          23.564          24.196          31.574          32.829          37.354          49.150          61.228          65.788          72.570          73.806          77.035          81.768          83.084          86.016          88.389          90.930          92.596          95.496          96.363          97.426          99.214         100.955         102.715         104.403         107.781         108.763         110.038         111.748         122.486         124.569         125.865         129.691         131.251         134.248         140.187         141.556         143.721         146.701         148.937         150.366         156.806         159.310         159.848         163.427         165.401         167.977         172.786         173.424
  136          24.201          24.820          30.980          32.250          38.346          48.263          61.280          65.948          72.456          73.827          77.012          81.745          83.133          86.030          88.403          90.992          92.530          95.503          96.372          97.411          99.239         100.930         102.745         104.369         107.814         108.749         110.045         111.707         122.500         124.650         125.909         129.756         131.098         134.246         140.247         141.476         143.702         146.695         148.948         150.404         156.790         159.358         159.812         163.478         165.378         167.944         172.787         173.428
  137          24.821          25.416          30.393          31.688          39.324          47.372          61.322          66.085          72.357          73.845          76.994          81.727          83.174          86.042          88.412          91.051          92.470          95.509          96.379          97.398          99.260         100.909         102.769         104.342         107.842         108.737         110.051         111.673         122.512         124.719         125.943         129.835         130.947         134.244         140.302         141.404         143.687         146.690         148.956         150.435         156.777         159.405         159.775         163.521         165.357         167.916         172.788         173.431
  138          25.417          25.968          29.825          31.163          40.276          46.488          61.354          66.197          72.276          73.859          76.979          81.712          83.206          86.051          88.418          91.103          92.419          95.513          96.385          97.388          99.276         100.893         102.789         104.320         107.864         108.727         110.056         111.646         122.521         124.775         125.966         129.926         130.800         134.243         140.350         141.343         143.675         146.686         148.963         150.460         156.766         159.449         159.739         163.556         165.341         167.894         172.789         173.434
  139          25.962          26.445          29.298          30.705          41.180          45.632          61.378          66.278          72.216          73.869          76.969          81.702          83.229          86.057          88.421          91.144          92.379          95.517          96.389          97.380          99.288         100.881         102.802         104.305         107.879         108.720         110.059         111.627         122.527         124.817         125.982         130.023         130.663         134.242         140.389         141.295         143.667         146.683         148.968         150.478         156.759         159.489         159.705         163.581         165.328         167.879         172.789         173.436
  140          26.396          26.789          28.876          30.372          41.959          44.882          61.392          66.329          72.179          73.876          76.963          81.696          83.243          86.061          88.423          91.171          92.353          95.518          96.391          97.376          99.295         100.874         102.811         104.295         107.889         108.715         110.061         111.616         122.531         124.842         125.990         130.114         130.548         134.241         140.415         141.264         143.662         146.681         148.970         150.488         156.754         159.522         159.675         163.597         165.321         167.869         172.790         173.437
  141          26.579          26.919          28.697          30.246          42.332          44.519          61.396          66.346          72.166          73.878          76.961          81.694          83.248          86.062          88.423          91.180          92.344          95.519          96.392          97.374          99.297         100.872         102.814         104.292         107.892         108.714         110.062         111.612         122.532         124.851         125.993         130.159         130.496         134.241         140.423         141.253         143.660         146.681         148.971         150.492         156.753         159.536         159.662         163.602         165.318         167.866         172.790         173.437
  142          26.396          26.789          28.876          30.372          41.959          44.882          61.392          66.329          72.179          73.876          76.963          81.696          83.243          86.061          88.423          91.171          92.353          95.518          96.391          97.376          99.295         100.874         102.811         104.295         107.889         108.715         110.061         111.616         122.531         124.842         125.990         130.114         130.548         134.241         140.415         141.264         143.662         146.681         148.970         150.488         156.754         159.522         159.675         163.597         165.321         167.869         172.790         173.437
  143          25.962          26.445          29.298          30.705          41.180          45.632          61.378          66.278          72.216          73.869          76.969          81.702          83.229          86.057          88.421          91.144          92.379          95.517          96.389          97.380          99.288         100.881         102.802         104.305         107.879         108.720         110.059         111.627         122.527         124.817         125.982         130.023         130.663         134.242         140.389         141.295         143.667         146.683         148.968         150.478         156.759         159.489         159.705         163.581         165.328         167.879         172.789         173.436
  144          25.417          25.968          29.825          31.163          40.276          46.488          61.354          66.197          72.276          73.859          76.979          81.712          83.206          86.051          88.418          91.103          92.419          95.513          96.385          97.388          99.276         100.893         102.789         104.320         107.864         108.727         110.056         111.646         122.521         124.775         125.966         129.926         130.800         134.243         140.350         141.343         143.675         146.686         148.963         150.460         156.766         159.449         159.739         163.556         165.341         167.894         172.789         173.434
  145          24.821          25.416          30.393          31.688          39.324          47.372          61.322          66.085          72.357          73.845          76.994          81.727          83.174          86.042          88.412          91.051          92.470          95.509          96.379          97.398          99.260         100.909         102.769         104.342         107.842         108.737         110.051         111.673         122.512         124.719         125.943         129.835         130.947         134.244         140.302         141.404         143.687         146.690         148.956         150.435         156.777         159.405         159.775         163.521         165.357         167.916         172.788         173.431
  146          24.201          24.820          30.980          32.250          38.346          48.263          61.280          65.948          72.456          73.827          77.012          81.745          83.133          86.030          88.403          90.992          92.530          95.503          96.372          97.411          99.239         100.930         102.745         104.369         107.814         108.749         110.045         111.707         122.500         124.650         125.909         129.756         131.098         134.246         140.247         141.476         143.702         146.695         148.948         150.404         156.790         159.358         159.812         163.478         165.378         167.944         172.787         173.428
  147          23.564          24.196          31.574          32.829          37.354          49.150          61.228          65.788          72.570          73.806          77.035          81.768          83.084          86.016          88.389          90.930          92.596          95.496          96.363          97.426          99.214         100.955         102.715         104.403         107.781         108.763         110.038         111.748         122.486         124.569         125.865         129.691         131.251         134.248         140.187         141.556         143.721         146.701         148.937         150.366         156.806         159.310         159.848         163.427         165.401         167.977         172.786         173.424
  148          22.918          23.554          32.170          33.413          36.356          50.028          61.167          65.609          72.695          73.781          77.063          81.794          83.027          85.999          88.368          90.867          92.665          95.489          96.354          97.445          99.185         100.985         102.681         104.442         107.744         108.779         110.029         111.796         122.470         124.477         125.808         129.641         131.404         134.250         140.126         141.642         143.743         146.708         148.925         150.322         156.824         159.261         159.884         163.369         165.427         168.016         172.785         173.419
  149          22.263          22.898          32.766          33.971          35.379          50.893          61.098          65.414          72.828          73.753          77.096          81.823          82.962          85.980          88.339          90.808          92.736          95.480          96.343          97.466          99.151         101.019         102.643         104.486         107.702         108.795         110.019         111.850         122.451         124.376         125.740         129.608         131.557         134.252         140.063         141.732         143.769         146.717         148.911         150.271         156.845         159.210         159.918         163.306         165.456         168.059         172.784         173.413
  150          21.603          22.233          33.360          34.079          34.847          51.744          61.018          65.208          72.967          73.722          77.135          81.856          82.889          85.958          88.299          90.755          92.809          95.470          96.332          97.489          99.113         101.057         102.600         104.535         107.656         108.812         110.007         111.909         122.431         124.268         125.660         129.591         131.707         134.255         139.999         141.827         143.798         146.726         148.895         150.215         156.868         159.158         159.953         163.237         165.485         168.106         172.782         173.407
  151          20.938          21.559          33.174          33.951          35.319          52.576          60.930          64.995          73.109          73.688          77.179          81.893          82.810          85.934          88.248          90.710          92.881          95.460          96.320          97.514          99.071         101.099         102.553         104.590         107.606         108.830         109.994         111.975         122.408         124.151         125.570         129.588         131.854         134.259         139.936         141.924         143.830         146.736         148.877         150.153         156.893         159.105         159.986         163.165         165.516         168.157         172.781         173.400
  152          20.268          20.879          32.150          34.538          35.903          53.387          60.833          64.778          73.251          73.652          77.229          81.932          82.724          85.908          88.182          90.674          92.954          95.449          96.308          97.542          99.025         101.146         102.503         104.648         107.552         108.848         109.979         112.045         122.382         124.029         125.470         129.600         131.997         134.262         139.874         142.025         143.866         146.747         148.857         150.085         156.919         159.051         160.019         163.089         165.548         168.211         172.779         173.392
  153          19.595          20.194          31.106          35.119          36.499          54.172          60.726          64.563          73.392          73.614          77.285          81.975          82.633          85.879          88.102          90.650          93.025          95.437          96.295          97.571          98.976         101.196         102.450         104.711         107.495         108.867         109.962         112.120         122.355         123.900         125.363         129.624         132.136         134.266         139.812         142.128         143.905         146.759         148.835         150.013         156.947         158.997         160.051         163.010         165.580         168.269         172.777         173.384
  154          18.918          19.504          30.050          35.696          37.097          54.927          60.611          64.357          73.529          73.574          77.347          82.020          82.535          85.848          88.007          90.637          93.095          95.425          96.283          97.603          98.923         101.251         102.394         104.777         107.435         108.885         109.944         112.198         122.326         123.767         125.251         129.660         132.270         134.270         139.752         142.233         143.947         146.772         148.812         149.935         156.977         158.942         160.083         162.929         165.612         168.328         172.775         173.376
  155          18.239          18.809          28.987          36.266          37.695          55.644          60.487          64.166          73.533          73.662          77.416          82.068          82.433          85.815          87.897          90.635          93.164          95.412          96.271          97.636          98.867         101.309         102.336         104.846         107.373         108.903         109.924         112.280         122.296         123.628         125.134         129.705         132.399         134.274         139.693         142.340         143.992         146.785         148.786         149.853         157.007         158.887         160.114         162.846         165.645         168.390         172.773         173.366
  156          17.556          18.111          27.917          36.830          38.290          56.314          60.354          64.000          73.490          73.789          77.490          82.118          82.326          85.780          87.772          90.644          93.230          95.400          96.260          97.670          98.807         101.371         102.276         104.917         107.308         108.920         109.902         112.366         122.263         123.486         125.016         129.758         132.522         134.278         139.636         142.449         144.041         146.800         148.759         149.767         157.038         158.831         160.145         162.762         165.677         168.453         172.771         173.356
  157          16.872          17.409          26.841          37.387          38.882          56.922          60.213          63.874          73.447          73.909          77.570          82.171          82.216          85.743          87.633          90.664          93.295          95.387          96.249          97.706          98.745         101.437         102.214         104.991         107.241         108.938         109.878         112.453         122.230         123.340         124.897         129.818         132.639         134.283         139.580         142.559         144.092         146.814         148.731         149.678         157.069         158.775         160.175         162.677         165.709         168.517         172.769         173.346
  158          16.184          16.704          25.759          37.936          39.472          57.454          60.064          63.805          73.403          74.021          77.656          82.102          82.225          85.704          87.482          90.692          93.357          95.373          96.240          97.744          98.679         101.506         102.151         105.065         107.173         108.955         109.852         112.543         122.195         123.191         124.778         129.883         132.750         134.287         139.526         142.670         144.147         146.830         148.700         149.584         157.101         158.720         160.205         162.592         165.740         168.582         172.766         173.335
  159          15.495          15.996          24.673          38.477          40.057          57.889          59.907          63.811          73.359          74.125          77.745          81.986          82.282          85.663          87.318          90.728          93.417          95.360          96.232          97.782          98.612         101.579         102.086         105.139         107.105         108.971         109.824         112.633         122.159         123.040         124.661         129.952         132.854         134.292         139.474         142.783         144.203         146.846         148.668         149.488         157.133         158.664         160.235         162.507         165.771         168.647         172.764         173.324
  160          14.804          15.285          23.582          39.009          40.638          58.210          59.743          63.910          73.316          74.221          77.836          81.869          82.339          85.620          87.145          90.770          93.474          95.347          96.225          97.821          98.541         101.656         102.021         105.212         107.037         108.987         109.794         112.725         122.122         122.888         124.548         130.025         132.952         134.297         139.424         142.896         144.263         146.862         148.634         149.389         157.164         158.609         160.264         162.422         165.802         168.712         172.761         173.313
  161          14.110          14.572          22.486          39.532          41.215          58.407          59.572          64.113          73.272          74.308          77.929          81.752          82.399          85.575          86.962          90.818          93.528          95.334          96.221          97.861          98.469         101.736         101.956         105.282         106.970         109.002         109.761         112.817         122.084         122.735         124.437         130.099         133.043         134.302         139.376         143.010         144.324         146.879         148.599         149.287         157.196         158.554         160.294         162.338         165.832         168.777         172.759         173.301
  162          13.415          13.857          21.387          40.045          41.788          58.481          59.394          64.417          73.229          74.388          78.020          81.637          82.459          85.530          86.771          90.870          93.579          95.322          96.218          97.901          98.395         101.820         101.891         105.347         106.907         109.016         109.727         112.909         122.046         122.583         124.331         130.175         133.128         134.306         139.330         143.124         144.387         146.895         148.563         149.184         157.227         158.500         160.324         162.255         165.861         168.841         172.756         173.289
  163          12.718          13.140          20.283          40.548          42.356          58.448          59.211          64.808          73.187          74.459          78.106          81.526          82.520          85.483          86.572          90.925          93.627          95.309          96.218          97.941          98.320         101.826         101.907         105.405         106.850         109.030         109.691         113.000         122.007         122.433         124.229         130.252         133.206         134.311         139.287         143.238         144.452         146.913         148.525         149.079         157.257         158.447         160.353         162.173         165.889         168.903         172.754         173.277
  164          12.020          12.420          19.176          41.039          42.919          58.327          59.022          65.265          73.147          74.523          78.184          81.422          82.582          85.434          86.368          90.982          93.672          95.297          96.220          97.982          98.243         101.762         101.997         105.453         106.800         109.042         109.652         113.089         121.969         122.285         124.132         130.329         133.278         134.316         139.245         143.352         144.519         146.930         148.486         148.973         157.287         158.395         160.383         162.092         165.916         168.964         172.751         173.265
  165          11.320          11.699          18.065          41.517          43.477          58.137          58.830          65.769          73.107          74.580          78.250          81.329          82.644          85.385          86.158          91.041          93.713          95.285          96.226          98.023          98.165         101.699         102.090         105.488         106.761         109.055         109.611         113.177         121.930         122.140         124.040         130.405         133.344         134.321         139.205         143.466         144.585         146.947         148.445         148.866         157.316         158.344         160.413         162.013         165.942         169.023         172.749         173.252
  166          10.619          10.976          16.951          41.981          44.031          57.897          58.634          66.302          73.069          74.630          78.298          81.251          82.707          85.335          85.944          91.101          93.751          95.274          96.234          98.063          98.086         101.637         102.187         105.506         106.737         109.066         109.569         113.263         121.892         122.000         123.953         130.480         133.403         134.326         139.168         143.579         144.653         146.965         148.404         148.759         157.343         158.296         160.444         161.935         165.967         169.081         172.746         173.240
  167           9.917          10.251          15.834          42.431          44.578          57.616          58.435          66.852          73.033          74.674          78.324          81.192          82.769          85.285          85.727          91.160          93.786          95.263          96.245          98.006          98.102         101.577         102.286         105.506         106.728         109.077         109.524         113.346         121.855         121.864         123.871         130.552         133.457         134.330         139.133         143.691         144.720         146.982         148.363         148.652         157.370         158.248         160.475         161.859         165.990         169.135         172.744         173.229
  168           9.213           9.525          14.715          42.865          45.121          57.306          58.236          67.408          72.998          74.712          78.322          81.156          82.831          85.234          85.506          91.219          93.817          95.253          96.260          97.927          98.141         101.519         102.387         105.485         106.737         109.087         109.479         113.425         121.734         121.819         123.794         130.623         133.505         134.334         139.100         143.801         144.787         147.000         148.321         148.545         157.395         158.203         160.506         161.785         166.013         169.188         172.742         173.217
  169           8.508           8.797          13.592          43.280          45.657          56.972          58.037          67.965          72.966          74.745          78.288          81.148          82.892          85.183          85.284          91.276          93.845          95.244          96.278          97.847          98.179         101.463         102.491         105.445         106.761         109.096         109.431         113.501         121.612         121.784         123.723         130.690         133.547         134.338         139.070         143.908         144.852         147.017         148.278         148.441         157.418         158.161         160.539         161.713         166.034         169.237         172.740         173.206
  170           7.803           8.069          12.468          43.677          46.188          56.618          57.841          68.516          72.936          74.773          78.222          81.168          82.952          85.061          85.133          91.331          93.870          95.235          96.299          97.768          98.215         101.410         102.597         105.389         106.798         109.104         109.383         113.573         121.496         121.750         123.658         130.755         133.584         134.342         139.042         144.014         144.916         147.034         148.236         148.338         157.440         158.120         160.571         161.642         166.053         169.284         172.737         173.195
  171           7.096           7.339          11.341          44.052          46.712          56.250          57.649          69.056          72.908          74.796          78.124          81.217          83.011          84.837          85.083          91.383          93.891          95.226          96.324          97.690          98.250         101.360         102.705         105.320         106.845         109.112         109.334         113.641         121.388         121.719         123.598         130.815         133.617         134.346         139.016         144.115         144.977         147.050         148.195         148.239         157.461         158.083         160.605         161.574         166.071         169.327         172.735         173.185
  172           6.389           6.608          10.213          44.403          47.229          55.869          57.463          69.581          72.882          74.815          77.996          81.292          83.067          84.614          85.035          91.433          93.909          95.219          96.352          97.613          98.282         101.313         102.813         105.240         106.899         109.118         109.285         113.703         121.289         121.689         123.543         130.871         133.645         134.350         138.993         144.212         145.036         147.066         148.143         148.154         157.479         158.048         160.639         161.508         166.088         169.367         172.734         173.175
  173           5.681           5.876           9.082          44.729          47.738          55.479          57.285          70.088          72.859          74.829          77.843          81.390          83.121          84.391          84.989          91.479          93.924          95.212          96.383          97.537          98.313         101.270         102.922         105.152         106.955         109.124         109.237         113.760         121.199         121.662         123.494         130.923         133.669         134.353         138.972         144.304         145.090         147.082         148.053         148.115         157.496         158.016         160.675         161.444         166.103         169.403         172.732         173.167
  174           4.972           5.143           7.950          45.026          48.239          55.081          57.119          70.571          72.839          74.839          77.670          81.507          83.171          84.171          84.945          91.520          93.937          95.206          96.417          97.464          98.340         101.231         103.030         105.060         107.013         109.130         109.191         113.811         121.119         121.637         123.451         130.969         133.689         134.355         138.953         144.390         145.141         147.097         147.968         148.079         157.512         157.988         160.711         161.382         166.116         169.436         172.730         173.159
  175           4.263           4.410           6.817          45.292          48.729          54.678          56.966          71.025          72.821          74.844          77.486          81.641          83.217          83.952          84.904          91.557          93.947          95.200          96.452          97.394          98.365         101.197         103.136         104.966         107.069         109.134         109.147         113.856         121.048         121.615         123.414         131.010         133.706         134.358         138.937         144.468         145.186         147.111         147.890         148.044         157.525         157.963         160.749         161.322         166.128         169.464         172.729         173.151
  176           3.553           3.676           5.683          45.524          49.207          54.274          56.830          71.444          72.805          74.845          77.297          81.788          83.259          83.737          84.868          91.590          93.956          95.196          96.488          97.329          98.387         101.167         103.237         104.873         107.121         109.106         109.138         113.895         120.988         121.596         123.382         131.046         133.720         134.360         138.923         144.538         145.226         147.123         147.821         148.014         157.536         157.941         160.788         161.265         166.138         169.488         172.728         173.145
  177           2.843           2.941           4.547          45.718          49.666          53.873          56.714          71.819          72.793          74.840          77.114          81.945          83.294          83.526          84.836          91.617          93.962          95.192          96.524          97.268          98.405         101.142         103.333         104.783         107.166         109.071         109.142         113.927         120.938         121.580         123.356         131.075         133.731         134.362         138.912         144.597         145.260         147.134         147.762         147.987         157.545         157.924         160.828         161.209         166.146         169.508         172.727         173.140
  178           2.133           2.206           3.411          45.873          50.099          53.486          56.621          72.139          72.783          74.831          76.948          82.110          83.320          83.323          84.810          91.638          93.966          95.189          96.558          97.216          98.419         101.122         103.418         104.703         107.204         109.041         109.144         113.952         120.899         121.567         123.336         131.098         133.739         134.363         138.904         144.645         145.286         147.144         147.715         147.966         157.553         157.910         160.870         161.155         166.153         169.524         172.726         173.136
  179           1.422           1.471           2.274          45.985          50.484          53.134          56.552          72.388          72.776          74.820          76.814          82.278          83.124          83.345          84.791          91.653          93.970          95.187          96.586          97.174          98.429         101.108         103.486         104.637         107.233         109.019         109.146         113.970         120.871         121.558         123.321         131.115         133.744         134.364         138.897         144.680         145.306         147.150         147.679         147.950         157.558         157.900         160.912         161.104         166.157         169.535         172.725         173.133
  180           0.711           0.736           1.137          46.053          50.776          52.861          56.510          72.548          72.772          74.810          76.726          82.437          82.948          83.358          84.779          91.663          93.971          95.186          96.606          97.147          98.436         101.099         103.532         104.593         107.251         109.005         109.147         113.981         120.855         121.553         123.313         131.125         133.748         134.365         138.894         144.702         145.317         147.155         147.658         147.940         157.561         157.894         160.956         161.055         166.160         169.542         172.725         173.131
  181           0.000           0.000           0.000          46.076          50.892          52.751          56.496          72.603          72.770          74.806          76.696          82.524          82.855          83.362          84.775          91.666          93.972          95.185          96.613          97.137          98.438         101.096         103.548         104.577         107.257         109.000         109.147         113.984         120.849         121.551         123.310         131.128         133.749         134.365         138.892         144.709         145.321         147.156         147.651         147.936         157.562         157.892         160.991         161.018         166.161         169.544         172.725         173.131
  182           0.729           0.835           1.412          46.082          50.879          52.780          56.500          72.602          72.771          74.808          76.696          82.503          82.880          83.359          84.772          91.666          93.972          95.184          96.590          97.154          98.427         101.103         103.552         104.577         107.254         109.001         109.146         113.984         120.848         121.550         123.316         131.126         133.750         134.368         138.893         144.709         145.312         147.155         147.651         147.938         157.561         157.892         160.958         161.044         166.162         169.541         172.722         173.135
  183           1.459           1.670           2.825          46.099          50.844          52.864          56.513          72.600          72.775          74.815          76.697          82.450          82.941          83.350          84.763          91.665          93.970          95.182          96.528          97.196          98.395         101.122         103.564         104.577         107.248         109.003         109.143         113.983         120.845         121.546         123.334         131.118         133.755         134.376         138.893         144.708         145.283         147.150         147.652         147.942         157.558         157.894         160.907         161.075         166.167         169.531         172.713         173.148
  184           2.188           2.505           4.236          46.128          50.792          52.996          56.535          72.596          72.780          74.826          76.699          82.384          83.024          83.335          84.749          91.664          93.968          95.179          96.440          97.252          98.342         101.152         103.584         104.576         107.236         109.005         109.138         113.980         120.841         121.539         123.364         131.104         133.763         134.389         138.894         144.707         145.236         147.141         147.654         147.949         157.553         157.898         160.847         161.100         166.176         169.515         172.698         173.169
  185           2.917           3.340           5.647          46.168          50.732          53.169          56.565          72.590          72.788          74.840          76.703          82.311          83.119          83.314          84.728          91.663          93.965          95.174          96.337          97.312          98.270         101.192         103.611         104.575         107.221         109.005         109.134         113.977         120.836         121.529         123.405         131.085         133.774         134.408         138.895         144.706         145.172         147.128         147.658         147.957         157.547         157.902         160.778         161.120         166.187         169.494         172.677         173.199
  186           3.646           4.174           7.057          46.220          50.671          53.375          56.604          72.584          72.798          74.858          76.708          82.235          83.223          83.286          84.702          91.662          93.961          95.168          96.224          97.370          98.180         101.241         103.644         104.574         107.201         109.003         109.132         113.973         120.829         121.517         123.458         131.062         133.788         134.433         138.897         144.704         145.092         147.109         147.661         147.968         157.539         157.907         160.700         161.136         166.202         169.466         172.651         173.235
  187           4.375           5.008           8.466          46.283          50.613          53.608          56.652          72.576          72.810          74.878          76.715          82.156          83.252          83.336          84.670          91.661          93.954          95.160          96.105          97.425          98.076         101.297         103.683         104.574         107.177         108.994         109.136         113.968         120.821         121.502         123.521         131.033         133.805         134.462         138.898         144.701         144.997         147.086         147.666         147.979         157.528         157.913         160.613         161.149         166.219         169.434         172.618         173.280
  188           5.104           5.842           9.874          46.357          50.563          53.865          56.709          72.568          72.824          74.899          76.725          82.076          83.212          83.456          84.633          91.659          93.945          95.151          95.982          97.474          97.957         101.357         103.725         104.575         107.150         108.978         109.146         113.963         120.813         121.485         123.595         131.000         133.825         134.496         138.901         144.699         144.888         147.056         147.672         147.990         157.516         157.919         160.516         161.160         166.238         169.397         172.580         173.330
  189           5.832           6.675          11.279          46.442          50.524          54.141          56.773          72.559          72.840          74.919          76.740          81.993          83.165          83.585          84.590          91.657          93.934          95.141          95.857          97.517          97.825         101.422         103.771         104.579         107.119         108.955         109.162         113.956         120.805         121.465         123.678         130.962         133.846         134.536         138.903         144.695         144.768         147.019         147.678         147.999         157.502         157.925         160.410         161.169         166.259         169.356         172.537         173.387
  190           6.560           7.507          12.683          46.538          50.496          54.435          56.847          72.551          72.858          74.938          76.759          81.908          83.111          83.722          84.543          91.654          93.919          95.129          95.732          97.553          97.683         101.489         103.817         104.586         107.086         108.926         109.184         113.948         120.797         121.443         123.770         130.920         133.870         134.580         138.906         144.637         144.692         146.976         147.686         148.007         157.487         157.931         160.294         161.178         166.283         169.311         172.488         173.449
  191           7.288           8.339          14.085          46.645          50.482          54.744          56.928          72.543          72.877          74.954          76.785          81.820          83.049          83.867          84.491          91.651          93.899          95.116          95.609          97.531          97.583         101.557         103.861         104.598         107.049         108.893         109.210         113.940         120.789         121.419         123.870         130.874         133.896         134.629         138.909         144.496         144.687         146.926         147.694         148.013         157.469         157.935         160.168         161.187         166.307         169.263         172.434         173.515
  192           8.015           9.170          15.485          46.763          50.481          55.067          57.018          72.536          72.898          74.965          76.818          81.729          82.981          84.020          84.435          91.648          93.874          95.101          95.490          97.370          97.607         101.626         103.901         104.617         107.010         108.856         109.241         113.931         120.781         121.393         123.979         130.825         133.923         134.683         138.913         144.346         144.683         146.869         147.703         148.014         157.450         157.939         160.033         161.198         166.332         169.213         172.375         173.586
  193           8.742          10.000          16.881          46.892          50.496          55.403          57.116          72.530          72.921          74.969          76.860          81.634          82.904          84.182          84.374          91.644          93.841          95.085          95.376          97.202          97.624         101.694         103.935         104.644         106.969         108.815         109.275         113.920         120.774         121.365         124.094         130.772         133.952         134.741         138.917         144.188         144.678         146.804         147.713         148.012         157.428         157.941         159.887         161.210         166.358         169.160         172.312         173.661
  194           9.468          10.830          18.275          47.031          50.526          55.749          57.222          72.526          72.945          74.965          76.912          81.536          82.820          84.309          84.352          91.640          93.801          95.068          95.269          97.026          97.636         101.761         103.960         104.680         106.927         108.772         109.313         113.909         120.768         121.335         124.216         130.715         133.983         134.803         138.921         144.023         144.673         146.733         147.724         148.004         157.406         157.941         159.732         161.226         166.384         169.105         172.244         173.739
  195          10.194          11.658          19.666          47.181          50.570          56.105          57.336          72.523          72.971          74.952          76.975          81.434          82.728          84.241          84.530          91.635          93.752          95.048          95.172          96.844          97.642         101.827         103.976         104.725         106.884         108.727         109.354         113.897         120.762         121.304         124.345         130.656         134.014         134.868         138.925         143.852         144.667         146.654         147.735         147.991         157.381         157.938         159.567         161.245         166.410         169.049         172.172         173.820
  196          10.920          12.485          21.053          47.340          50.630          56.470          57.458          72.523          72.997          74.929          77.049          81.328          82.627          84.170          84.716          91.629          93.694          95.027          95.084          96.657          97.643         101.892         103.982         104.779         106.840         108.679         109.398         113.885         120.758         121.271         124.479         130.594         134.046         134.938         138.930         143.675         144.661         146.567         147.748         147.973         157.355         157.933         159.393         161.268         166.435         168.990         172.097         173.903
  197          11.644          13.311          22.437          47.510          50.705          56.843          57.588          72.526          73.024          74.895          77.133          81.218          82.518          84.095          84.909          91.623          93.625          95.004          95.008          96.465          97.638         101.954         103.980         104.839         106.797         108.630         109.446         113.871         120.753         121.237         124.619         130.529         134.079         135.011         138.935         143.492         144.654         146.473         147.761         147.949         157.327         157.925         159.210         161.296         166.459         168.930         172.018         173.988
  198          12.368          14.136          23.816          47.689          50.795          57.222          57.725          72.531          73.052          74.851          77.229          81.105          82.400          84.017          85.110          91.615          93.548          94.942          94.979          96.269          97.630         102.013         103.969         104.903         106.755         108.579         109.498         113.857         120.750         121.202         124.763         130.463         134.112         135.088         138.941         143.305         144.648         146.370         147.775         147.920         157.297         157.914         159.020         161.329         166.482         168.868         171.937         174.075
  199          13.092          14.960          25.191          47.878          50.900          57.608          57.870          72.540          73.080          74.796          77.335          80.988          82.274          83.937          85.317          91.607          93.464          94.887          94.951          96.070          97.617         102.071         103.953         104.970         106.715         108.528         109.552         113.841         120.746         121.166         124.912         130.394         134.146         135.168         138.947         143.113         144.641         146.259         147.790         147.884         157.266         157.898         158.822         161.367         166.502         168.804         171.853         174.163
  200          13.814          15.782          26.561          48.076          51.018          57.997          58.021          72.552          73.108          74.731          77.449          80.868          82.138          83.854          85.531          91.597          93.374          94.841          94.918          95.870          97.601         102.125         103.931         105.035         106.679         108.476         109.610         113.825         120.744         121.129         125.064         130.323         134.179         135.251         138.953         142.917         144.633         146.139         147.806         147.844         157.233         157.877         158.619         161.411         166.521         168.739         171.768         174.252
  201          14.536          16.603          27.927          48.283          51.151          58.180          58.391          72.567          73.137          74.656          77.571          80.746          81.994          83.768          85.750          91.585          93.281          94.803          94.880          95.671          97.581         102.177         103.904         105.098         106.647         108.423         109.672         113.808         120.741         121.092         125.220         130.251         134.213         135.336         138.959         142.717         144.625         146.010         147.798         147.823         157.198         157.846         158.415         161.460         166.537         168.670         171.681         174.342
  202          15.257          17.422          29.286          48.499          51.298          58.346          58.788          72.585          73.164          74.573          77.698          80.623          81.842          83.680          85.972          91.572          93.187          94.771          94.832          95.477          97.558         102.225         103.875         105.155         106.622         108.371         109.736         113.790         120.738         121.054         125.379         130.178         134.246         135.424         138.966         142.514         144.617         145.872         147.747         147.840         157.162         157.795         158.221         161.514         166.551         168.600         171.594         174.433
  203          15.976          18.240          30.640          48.724          51.458          58.519          59.186          72.606          73.191          74.482          77.827          80.502          81.681          83.590          86.198          91.556          93.094          94.744          94.766          95.296          97.532         102.271         103.842         105.205         106.603         108.318         109.804         113.772         120.734         121.015         125.541         130.104         134.278         135.514         138.973         142.308         144.609         145.724         147.691         147.859         157.124         157.699         158.063         161.574         166.562         168.525         171.507         174.524
  204          16.695          19.056          31.988          48.957          51.630          58.698          59.586          72.630          73.217          74.386          77.955          80.385          81.511          83.497          86.426          91.538          93.007          94.670          94.721          95.141          97.504         102.314         103.808         105.246         106.595         108.267         109.876         113.753         120.730         120.976         125.704         130.029         134.310         135.606         138.980         142.099         144.600         145.566         147.632         147.878         157.085         157.534         157.966         161.638         166.570         168.448         171.420         174.616
  205          17.413          19.871          33.329          49.198          51.815          58.884          59.985          72.655          73.241          74.285          78.076          80.277          81.333          83.402          86.654          91.516          92.926          94.531          94.701          95.025          97.473         102.354         103.772         105.276         106.596         108.216         109.950         113.733         120.725         120.937         125.869         129.954         134.341         135.700         138.988         141.887         144.591         145.398         147.569         147.898         157.045         157.318         157.912         161.706         166.574         168.366         171.335         174.707
  206          18.130          20.683          34.662          49.447          52.012          59.076          60.384          72.681          73.263          74.182          78.184          80.185          81.148          83.304          86.880          91.492          92.853          94.354          94.683          94.944          97.441         102.391         103.736         105.294         106.608         108.166         110.028         113.712         120.719         120.899         126.035         129.879         134.371         135.795         138.996         141.674         144.582         145.220         147.503         147.918         157.003         157.076         157.876         161.779         166.575         168.279         171.253         174.799
  207          18.845          21.494          35.988          49.704          52.221          59.274          60.780          72.704          73.282          74.080          78.268          80.118          80.955          83.204          87.102          91.465          92.792          94.152          94.667          94.885          97.406         102.425         103.699         105.299         106.631         108.117         110.109         113.690         120.712         120.860         126.202         129.805         134.399         135.892         139.004         141.458         144.572         145.032         147.434         147.940         156.820         156.960         157.849         161.855         166.573         168.187         171.173         174.891
  208          19.559          22.303          37.305          49.968          52.442          59.478          61.174          72.720          73.298          73.984          78.318          80.087          80.755          83.101          87.317          91.436          92.744          93.937          94.652          94.837          97.369         102.456         103.662         105.294         106.665         108.071         110.193         113.668         120.702         120.821         126.368         129.731         134.426         135.990         139.013         141.240         144.563         144.833         147.363         147.962         156.553         156.915         157.826         161.935         166.567         168.089         171.097         174.983
  209          20.272          23.109          38.612          50.238          52.674          59.688          61.563          72.725          73.311          73.901          78.324          80.099          80.549          82.995          87.523          91.407          92.709          93.713          94.639          94.794          97.330         102.484         103.626         105.279         106.706         108.026         110.279         113.645         120.691         120.783         126.534         129.658         134.451         136.089         139.022         141.021         144.553         144.625         147.290         147.985         156.278         156.869         157.806         162.018         166.558         167.985         171.025         175.074
  210          20.983          23.914          39.909          50.516          52.917          59.902          61.948          72.710          73.319          73.839          78.283          80.158          80.336          82.887          87.716          91.380          92.688          93.484          94.627          94.755          97.290         102.509         103.591         105.255         106.755         107.984         110.369         113.622         120.676         120.746         126.698         129.588         134.474         136.189         139.031         140.801         144.407         144.543         147.215         148.009         155.996         156.822         157.788         162.103         166.545         167.875         170.957         175.165
  211          21.693          24.716          41.194          50.800          53.172          60.123          62.326          72.669          73.322          73.806          78.199          80.118          80.261          82.776          87.893          91.356          92.681          93.251          94.617          94.717          97.248         102.532         103.558         105.224         106.809         107.945         110.461         113.598         120.659         120.708         126.859         129.520         134.494         136.289         139.040         140.578         144.181         144.533         147.139         148.034         155.709         156.774         157.773         162.190         166.529         167.757         170.894         175.256
  212          22.401          25.516          42.466          51.090          53.439          60.348          62.696          72.597          73.319          73.806          78.079          79.895          80.398          82.662          88.050          91.338          92.688          93.016          94.611          94.680          97.204         102.552         103.528         105.188         106.866         107.909         110.556         113.573         120.639         120.672         127.017         129.455         134.511         136.390         139.050         140.355         143.947         144.522         147.062         148.059         155.416         156.724         157.759         162.278         166.509         167.634         170.837         175.346
  213          23.107          26.314          43.723          51.386          53.718          60.578          63.058          72.497          73.308          73.839          77.932          79.668          80.562          82.546          88.184          91.329          92.708          92.780          94.608          94.643          97.158         102.569         103.499         105.148         106.924         107.878         110.653         113.548         120.615         120.636         127.171         129.396         134.525         136.491         139.060         140.130         143.706         144.512         146.983         148.085         155.119         156.674         157.748         162.368         166.484         167.503         170.784         175.436
  214          23.811          27.109          44.962          51.687          54.012          60.812          63.410          72.373          73.290          73.901          77.765          79.438          80.743          82.426          88.294          91.330          92.543          92.739          94.607          94.612          97.111         102.584         103.474         105.106         106.982         107.852         110.753         113.523         120.587         120.601         127.317         129.341         134.535         136.591         139.070         139.904         143.458         144.502         146.904         148.111         154.818         156.623         157.738         162.458         166.456         167.367         170.737         175.525
  215          24.514          27.902          46.180          51.993          54.323          61.051          63.751          72.230          73.262          73.988          77.582          79.206          80.938          82.303          88.377          91.340          92.306          92.779          94.570          94.624          97.064         102.596         103.451         105.063         107.036         107.833         110.855         113.497         120.555         120.566         127.455         129.295         134.542         136.692         139.080         139.677         143.207         144.491         146.824         148.139         154.513         156.570         157.731         162.548         166.423         167.226         170.694         175.613
  216          25.215          28.692          47.373          52.305          54.653          61.293          64.078          72.076          73.224          74.096          77.388          78.973          81.141          82.178          88.436          91.360          92.068          92.825          94.533          94.646          97.016         102.607         103.432         105.019         107.086         107.823         110.960         113.471         120.518         120.533         127.583         129.258         134.543         136.792         139.091         139.449         142.953         144.480         146.742         148.167         154.206         156.517         157.726         162.638         166.384         167.082         170.657         175.701
  217          25.913          29.479          48.533          52.621          55.008          61.540          64.390          71.914          73.175          74.222          77.184          78.740          81.349          82.049          88.471          91.388          91.832          92.873          94.496          94.681          96.969         102.615         103.416         104.975         107.128         107.823         111.067         113.444         120.476         120.500         127.697         129.233         134.540         136.892         139.102         139.218         142.697         144.470         146.659         148.195         153.896         156.463         157.722         162.728         166.337         166.937         170.625         175.788
  218          26.609          30.264          49.653          52.940          55.395          61.790          64.686          71.748          73.112          74.363          76.974          78.508          81.558          81.917          88.486          91.423          91.596          92.918          94.459          94.729          96.925         102.621         103.404         104.932         107.161         107.834         111.177         113.417         120.429         120.468         127.795         129.222         134.531         136.991         138.986         139.113         142.442         144.459         146.574         148.224         153.586         156.408         157.721         162.817         166.279         166.795         170.597         175.874
  219          27.303          31.046          50.719          53.264          55.826          62.043          64.962          71.582          73.034          74.519          76.758          78.279          81.768          81.782          88.486          91.362          91.461          92.955          94.422          94.792          96.886         102.625         103.394         104.892         107.183         107.858         111.289         113.390         120.377         120.437         127.874         129.228         134.516         137.088         138.752         139.125         142.191         144.448         146.487         148.254         153.275         156.353         157.722         162.904         166.203         166.663         170.573         175.959
  220          27.995          31.825          51.715          53.591          56.314          62.299          65.216          71.421          72.939          74.687          76.539          78.054          81.644          81.974          88.474          91.130          91.501          92.981          94.384          94.867          96.857         102.627         103.388         104.853         107.195         107.894         111.404         113.363         120.318         120.407         127.932         129.251         134.494         137.185         138.516         139.136         141.944         144.438         146.398         148.284         152.964         156.297         157.726         162.990         166.104         166.548         170.552         176.043
  221          28.684          32.601          52.624          53.922          56.877          62.558          65.447          71.269          72.827          74.868          76.316          77.834          81.502          82.174          88.456          90.900          91.542          92.994          94.346          94.948          96.842         102.627         103.384         104.818         107.198         107.941         111.521         113.335         120.254         120.379         127.970         129.291         134.465         137.281         138.278         139.148         141.705         144.427         146.305         148.315         152.655         156.240         157.731         163.073         165.978         166.455         170.536         176.126
  222          29.370          33.374          53.427          54.255          57.527          62.819          65.652          71.129          72.696          75.059          76.091          77.622          81.358          82.366          88.436          90.673          91.583          92.993          94.308          95.027          96.849         102.626         103.382         104.787         107.194         107.995         111.643         113.308         120.183         120.351         127.989         129.346         134.428         137.375         138.036         139.161         141.475         144.417         146.209         148.346         152.348         156.183         157.738         163.153         165.828         166.379         170.522         176.207
  223          30.053          34.144          54.121          54.590          58.267          63.082          65.828          71.008          72.544          75.261          75.864          77.416          81.210          82.548          88.418          90.449          91.623          92.979          94.269          95.092          96.885         102.624         103.381         104.761         107.184         108.055         111.767         113.280         120.105         120.324         127.992         129.411         134.384         137.467         137.792         139.173         141.258         144.406         146.108         148.378         152.045         156.126         157.748         163.230         165.663         166.316         170.512         176.288
  224          30.733          34.910          54.714          54.927          59.083          63.346          65.975          70.908          72.371          75.471          75.638          77.220          81.059          82.717          88.407          90.229          91.663          92.952          94.231          95.135          96.956         102.620         103.380         104.739         107.171         108.119         111.896         113.252         120.020         120.298         127.984         129.482         134.331         137.546         137.558         139.186         141.054         144.396         146.001         148.410         151.746         156.069         157.759         163.302         165.489         166.260         170.504         176.367
  225          31.410          35.673          55.223          55.265          59.950          63.611          66.097          70.835          72.176          75.406          75.696          77.032          80.905          82.870          88.405          90.013          91.702          92.914          94.192          95.148          97.064         102.614         103.379         104.724         107.156         108.184         112.029         113.225         119.929         120.273         127.966         129.555         134.271         137.298         137.647         139.198         140.866         144.386         145.888         148.442         151.454         156.011         157.772         163.369         165.309         166.209         170.498         176.444
  226          32.084          36.433          55.605          55.669          60.834          63.877          66.202          70.792          71.960          75.179          75.923          76.853          80.748          83.005          88.417          89.801          91.740          92.867          94.154          95.131          97.209         102.608         103.377         104.715         107.139         108.249         112.167         113.198         119.831         120.250         127.942         129.625         134.203         137.048         137.733         139.212         140.695         144.376         145.767         148.475         151.170         155.953         157.787         163.429         165.128         166.160         170.495         176.520
  227          32.754          37.189          55.945          56.069          61.698          64.143          66.307          70.780          71.722          74.952          76.158          76.683          80.588          83.121          88.444          89.595          91.778          92.813          94.115          95.085          97.384         102.600         103.373         104.712         107.121         108.314         112.309         113.171         119.725         120.227         127.914         129.689         134.128         136.798         137.818         139.225         140.542         144.366         145.637         148.507         150.895         155.896         157.804         163.480         164.950         166.112         170.493         176.595
  228          33.420          37.942          56.285          56.436          62.494          64.408          66.451          70.799          71.464          74.727          76.399          76.521          80.425          83.216          88.489          89.393          91.815          92.752          94.076          95.016          97.581         102.592         103.367         104.716         107.103         108.376         112.457         113.144         119.613         120.205         127.884         129.744         134.048         136.550         137.900         139.239         140.407         144.356         145.497         148.541         150.631         155.838         157.822         163.517         164.779         166.066         170.493         176.668
  229          34.082          38.691          56.625          56.777          63.153          64.672          66.691          70.847          71.187          74.504          76.367          76.645          80.259          83.291          88.552          89.197          91.852          92.688          94.038          94.929          97.793         102.583         103.357         104.728         107.086         108.434         112.611         113.117         119.493         120.184         127.852         129.786         133.962         136.304         137.980         139.252         140.291         144.347         145.346         148.574         150.380         155.781         157.842         163.535         164.623         166.020         170.495         176.739
  230          34.740          39.436          56.963          57.099          63.605          64.932          67.096          70.892          70.920          74.284          76.219          76.893          80.090          83.344          88.632          89.008          91.887          92.621          94.000          94.828          98.015         102.573         103.345         104.746         107.069         108.488         112.770         113.091         119.367         120.165         127.820         129.814         133.874         136.064         138.057         139.267         140.193         144.338         145.182         148.607         150.143         155.724         157.864         163.524         164.491         165.975         170.498         176.808
  231          35.393          40.177          57.300          57.405          63.826          65.188          67.688          70.584          71.015          74.069          76.075          77.143          79.919          83.378          88.729          88.824          91.920          92.554          93.962          94.716          98.242         102.562         103.331         104.770         107.052         108.537         112.935         113.065         119.235         120.146         127.788         129.825         133.783         135.831         138.131         139.281         140.112         144.329         145.006         148.640         149.921         155.667         157.888         163.475         164.394         165.930         170.503         176.876
  232          36.042          40.914          57.635          57.698          63.858          65.438          68.426          70.264          71.126          73.860          75.936          77.394          79.745          83.395          88.648          88.839          91.950          92.490          93.925          94.597          98.468         102.551         103.313         104.801         107.037         108.579         113.040         113.106         119.096         120.128         127.756         129.817         133.693         135.608         138.203         139.296         140.047         144.320         144.816         148.673         149.715         155.612         157.912         163.384         164.336         165.886         170.508         176.941
  233          36.686          41.647          57.966          57.980          63.761          65.676          69.248          69.938          71.251          73.659          75.799          77.643          79.569          83.398          88.478          88.960          91.972          92.433          93.888          94.474          98.690         102.540         103.295         104.836         107.023         108.614         113.015         113.280         118.953         120.111         127.726         129.788         133.603         135.398         138.271         139.311         139.997         144.312         144.613         148.706         149.526         155.557         157.939         163.257         164.312         165.842         170.515         177.005
  234          37.323          42.376          58.251          58.293          63.581          65.900          69.612          70.103          71.384          73.474          75.663          77.889          79.391          83.390          88.316          89.087          91.981          92.392          93.851          94.349          98.905         102.528         103.275         104.876         107.011         108.642         112.991         113.459         118.805         120.095         127.697         129.738         133.514         135.202         138.337         139.327         139.961         144.304         144.396         148.739         149.355         155.502         157.967         163.103         164.313         165.799         170.522         177.066
  235          37.955          43.101          58.512          58.616          63.346          66.098          69.296          70.949          71.528          73.316          75.529          78.130          79.211          83.376          88.162          89.215          91.972          92.373          93.815          94.225          99.111         102.516         103.256         104.919         107.000         108.661         112.968         113.640         118.654         120.080         127.668         129.667         133.425         135.025         138.399         139.342         139.937         144.167         144.296         148.771         149.200         155.449         157.996         162.933         164.328         165.756         170.530         177.125
  236          38.581          43.821          58.762          58.932          63.075          66.258          69.005          71.577          71.829          73.230          75.394          78.366          79.030          83.359          88.015          89.338          91.943          92.378          93.780          94.107          99.303         102.504         103.239         104.965         106.991         108.672         112.945         113.821         118.501         120.066         127.642         129.577         133.336         134.869         138.458         139.358         139.924         143.926         144.288         148.803         149.062         155.397         158.027         162.753         164.353         165.714         170.539         177.182
  237          39.199          44.537          59.001          59.240          62.778          66.356          68.764          71.728          72.365          73.380          75.258          78.595          78.847          83.343          87.876          89.450          91.900          92.401          93.746          94.000          99.479         102.492         103.225         105.013         106.984         108.675         112.923         114.001         118.349         120.052         127.616         129.469         133.242         134.736         138.513         139.375         139.920         143.676         144.281         148.834         148.940         155.346         158.059         162.570         164.381         165.673         170.548         177.237
  238          39.810          45.248          59.225          59.540          62.465          66.362          68.603          71.804          72.543          73.950          75.121          78.663          78.818          83.334          87.745          89.544          91.853          92.431          93.713          93.911          99.636         102.480         103.217         105.061         106.979         108.669         112.902         114.175         118.201         120.040         127.592         129.347         133.144         134.631         138.565         139.391         139.924         143.418         144.274         148.833         148.864         155.297         158.092         162.384         164.412         165.632         170.557         177.289
  239          40.413          45.954          59.432          59.828          62.145          66.256          68.546          71.810          72.595          74.690          74.982          78.479          79.036          83.334          87.622          89.615          91.806          92.456          93.680          93.850          99.772         102.468         103.216         105.110         106.977         108.655         112.882         114.340         118.059         120.028         127.570         129.213         133.037         134.553         138.613         139.408         139.934         143.155         144.268         148.740         148.894         155.249         158.126         162.199         164.444         165.593         170.567         177.339
  240          41.006          46.656          59.614          60.103          61.830          66.043          68.587          71.744          72.673          74.842          75.438          78.295          79.256          83.348          87.507          89.658          91.763          92.467          93.649          93.830          99.882         102.457         103.224         105.157         106.977         108.632         112.862         114.491         117.928         120.017         127.548         129.072         132.923         134.501         138.658         139.425         139.949         142.888         144.262         148.660         148.923         155.203         158.162         162.015         164.476         165.554         170.577         177.386
  241          41.589          47.352          59.755          60.360          61.537          65.752          68.702          71.630          72.788          74.700          76.145          78.112          79.487          83.379          87.400          89.669          91.727          92.453          93.619          93.859          99.966         102.446         103.244         105.203         106.981         108.602         112.844         114.622         117.814         120.007         127.528         128.926         132.801         134.474         138.700         139.442         139.967         142.620         144.256         148.590         148.951         155.159         158.199         161.835         164.507         165.517         170.587         177.431
  242          42.161          48.043          59.827          60.594          61.298          65.415          68.863          71.492          72.924          74.558          76.779          77.930          79.747          83.430          87.301          89.647          91.695          92.414          93.591          93.941         100.019         102.435         103.276         105.246         106.987         108.564         112.826         114.728         117.723         119.997         127.510         128.779         132.674         134.469         138.738         139.459         139.987         142.354         144.250         148.531         148.978         155.116         158.238         161.659         164.537         165.480         170.597         177.473
  243          42.719          48.728          59.790          60.799          61.155          65.055          69.050          71.343          73.070          74.414          77.313          77.750          80.057          83.500          87.210          89.593          91.664          92.353          93.563          94.073         100.042         102.425         103.320         105.285         106.997         108.520         112.810         114.802         117.658         119.989         127.492         128.635         132.544         134.482         138.773         139.476         140.006         142.093         144.245         148.480         149.004         155.076         158.277         161.488         164.566         165.445         170.607         177.512
  244          43.263          49.408          59.627          60.964          61.128          64.696          69.252          71.193          73.221          74.271          77.573          77.724          80.436          83.591          87.127          89.510          91.630          92.282          93.538          94.247         100.033         102.415         103.378         105.319         107.010         108.471         112.794         114.841         117.625         119.981         127.476         128.495         132.413         134.510         138.804         139.492         140.022         141.841         144.241         148.438         149.028         155.038         158.318         161.322         164.593         165.411         170.616         177.549
  245          43.790          50.083          59.370          61.072          61.185          64.358          69.460          71.045          73.373          74.128          77.400          78.011          80.884          83.701          87.051          89.399          91.586          92.211          93.514          94.455          99.994         102.406         103.446         105.349         107.026         108.417         112.780         114.844         117.624         119.973         127.460         128.363         132.283         134.550         138.833         139.508         140.033         141.602         144.236         148.402         149.051         155.003         158.359         161.163         164.619         165.379         170.625         177.583
  246          44.298          50.751          59.064          61.104          61.285          64.066          69.668          70.902          73.522          73.987          77.233          78.192          81.380          83.831          86.983          89.265          91.526          92.151          93.492          94.688          99.924         102.397         103.524         105.373         107.046         108.360         112.767         114.814         117.652         119.967         127.446         128.240         132.157         134.598         138.858         139.524         140.034         141.381         144.232         148.373         149.073         154.970         158.401         161.012         164.644         165.349         170.634         177.614
  247          44.784          51.412          58.739          61.036          61.402          63.844          69.874          70.767          73.667          73.849          77.072          78.296          81.894          83.981          86.922          89.109          91.449          92.105          93.471          94.941          99.827         102.389         103.610         105.391         107.069         108.301         112.755         114.757         117.704         119.961         127.432         128.128         132.037         134.653         138.880         139.538         140.022         141.184         144.229         148.349         149.093         154.940         158.443         160.869         164.666         165.320         170.642         177.642
  248          45.244          52.067          58.411          60.855          61.521          63.706          70.074          70.641          73.714          73.805          76.920          78.345          82.398          84.154          86.868          88.934          91.357          92.074          93.453          95.209          99.704         102.382         103.699         105.402         107.094         108.241         112.744         114.681         117.772         119.955         127.420         128.027         131.923         134.711         138.900         139.552         139.992         141.018         144.225         148.329         149.111         154.912         158.486         160.734         164.688         165.293         170.649         177.667
  249          45.673          52.715          58.091          60.569          61.635          63.645          70.265          70.525          73.586          73.935          76.778          78.359          82.865          84.357          86.821          88.740          91.257          92.056          93.436          95.486          99.559         102.375         103.790         105.407         107.120         108.182         112.734         114.595         117.849         119.951         127.408         127.938         131.819         134.771         138.917         139.564         139.940         140.889         144.223         148.313         149.127         154.888         158.528         160.610         164.707         165.268         170.656         177.690
  250          46.066          53.355          57.789          60.196          61.740          63.640          70.422          70.444          73.464          74.054          76.649          78.350          83.269          84.602          86.781          88.528          91.155          92.045          93.422          95.768          99.394         102.370         103.879         105.406         107.148         108.125         112.726         114.505         117.928         119.947         127.398         127.862         131.724         134.829         138.931         139.575         139.867         140.797         144.220         148.300         149.141         154.866         158.569         160.497         164.725         165.245         170.662         177.709
  251          46.417          53.987          57.512          59.762          61.832          63.668          70.332          70.608          73.352          74.160          76.534          78.328          83.590          84.897          86.747          88.300          91.058          92.040          93.409          96.049          99.214         102.365         103.963         105.401         107.175         108.072         112.719         114.418         118.004         119.943         127.388         127.799         131.641         134.885         138.943         139.585         139.782         140.737         144.218         148.290         149.153         154.848         158.607         160.397         164.741         165.225         170.667         177.726
  252          46.719          54.608          57.270          59.285          61.911          63.710          70.257          70.751          73.252          74.251          76.436          78.300          83.826          85.235          86.720          88.054          90.970          92.038          93.399          96.323          99.024         102.361         104.039         105.392         107.201         108.025         112.713         114.340         118.071         119.941         127.380         127.748         131.571         134.934         138.953         139.593         139.695         140.700         144.216         148.282         149.163         154.833         158.642         160.312         164.754         165.208         170.672         177.739
  253          46.965          55.217          57.070          58.779          61.973          63.753          70.198          70.871          73.168          74.325          76.357          78.273          83.990          85.593          86.698          87.795          90.896          92.037          93.391          96.579          98.834         102.358         104.103         105.381         107.224         107.986         112.709         114.275         118.127         119.939         127.373         127.709         131.516         134.976         138.961         139.599         139.616         140.679         144.215         148.277         149.171         154.821         158.671         160.242         164.765         165.194         170.675         177.750
  254          47.147          55.807          56.921          58.259          62.019          63.788          70.154          70.962          73.104          74.380          76.298          78.250          84.097          85.944          86.683          87.528          90.840          92.037          93.386          96.802          98.660         102.355         104.152         105.371         107.242         107.956         112.705         114.226         118.169         119.937         127.368         127.682         131.475         135.007         138.966         139.555         139.604         140.668         144.214         148.273         149.177         154.813         158.694         160.191         164.773         165.184         170.678         177.757
  255          47.259          56.352          56.828          57.754          62.047          63.811          70.128          71.019          73.063          74.413          76.263          78.235          84.159          86.247          86.674          87.281          90.806          92.037          93.382          96.962          98.528         102.354         104.183         105.364         107.253         107.937         112.703         114.196         118.194         119.936         127.365         127.666         131.451         135.027         138.969         139.516         139.607         140.663         144.213         148.271         149.180         154.807         158.709         160.159         164.778         165.177         170.679         177.762
  256          47.297          56.669          56.796          57.451          62.056          63.819          70.119          71.039          73.049          74.424          76.251          78.230          84.179          86.392          86.671          87.155          90.794          92.038          93.381          97.023          98.477         102.354         104.194         105.361         107.257         107.931         112.703         114.185         118.203         119.936         127.364         127.661         131.443         135.034         138.970         139.502         139.607         140.661         144.213         148.270         149.181         154.806         158.713         160.148         164.780         165.175         170.680         177.763
