# Phonon frequencies in cm-1
    1           0.000           0.000           0.000         347.517         347.517         347.517         435.166         435.166         435.166
    2           1.439           1.439           3.639         347.491         347.491         347.620         435.145         435.175         435.175
    3           2.878           2.878           7.275         347.413         347.413         347.927         435.082         435.201         435.201
    4           4.318           4.318          10.906         347.283         347.283         348.439         434.977         435.244         435.244
    5           5.758           5.758          14.529         347.101         347.101         349.153         434.830         435.304         435.304
    6           7.199           7.199          18.140         346.868         346.868         350.068         434.640         435.381         435.381
    7           8.641           8.641          21.738         346.583         346.583         351.180         434.407         435.476         435.476
    8          10.083          10.083          25.320         346.247         346.247         352.486         434.131         435.587         435.587
    9          11.527          11.527          28.884         345.860         345.860         353.983         433.811         435.715         435.715
   10          12.972          12.972          32.428         345.423         345.423         355.666         433.448         435.859         435.859
   11          14.419          14.419          35.948         344.935         344.935         357.530         433.039         436.020         436.020
   12          15.867          15.867          39.445         344.398         344.398         359.570         432.585         436.196         436.196
   13          17.316          17.316          42.915         343.811         343.811         361.780         432.085         436.388         436.388
   14          18.768          18.768          46.357         343.176         343.176         364.155         431.539         436.596         436.596
   15          20.221          20.221          49.771         342.492         342.492         366.686         430.945         436.819         436.819
   16          21.675          21.675          53.154         341.761         341.761         369.369         430.303         437.057         437.057
   17          23.132          23.132          56.505         340.983         340.983         372.196         429.611         437.310         437.310
   18          24.590          24.590          59.824         340.158         340.158         375.160         428.870         437.576         437.576
   19          26.049          26.049          63.110         339.287         339.287         378.253         428.077         437.857         437.857
   20          27.511          27.511          66.363         338.372         338.372         381.467         427.233         438.152         438.152
   21          28.973          28.973          69.581         337.412         337.412         384.797         426.336         438.459         438.459
   22          30.438          30.438          72.764         336.409         336.409         388.232         425.385         438.779         438.779
   23          31.903          31.903          75.912         335.363         335.363         391.767         424.380         439.112         439.112
   24          33.370          33.370          79.025         334.275         334.275         395.393         423.319         439.457         439.457
   25          34.837          34.837          82.102         333.146         333.146         399.102         422.201         439.814         439.814
   26          36.305          36.305          85.144         331.977         331.977         402.887         421.025         440.182         440.182
   27          37.773          37.773          88.150         330.769         330.769         406.741         419.791         440.561         440.561
   28          39.242          39.242          91.121         329.523         329.523         410.656         418.497         440.950         440.950
   29          40.711          40.711          94.056         328.239         328.239         414.624         417.143         441.349         441.349
   30          42.179          42.179          96.956         326.919         326.919         415.727         418.639         441.758         441.758
   31          43.646          43.646          99.821         325.564         325.564         414.249         422.694         442.176         442.176
   32          45.113          45.113         102.651         324.174         324.174         412.709         426.782         442.603         442.603
   33          46.578          46.578         105.446         322.752         322.752         411.104         430.896         443.038         443.038
   34          48.041          48.041         108.206         321.298         321.298         409.435         435.030         443.481         443.481
   35          49.502          49.502         110.932         319.812         319.812         407.701         439.178         443.932         443.932
   36          50.960          50.960         113.623         318.297         318.297         405.902         443.334         444.389         444.389
   37          52.415          52.415         116.280         316.754         316.754         404.036         444.854         444.854         447.491
   38          53.867          53.867         118.903         315.183         315.183         402.103         445.324         445.324         451.645
   39          55.314          55.314         121.491         313.586         313.586         400.104         445.800         445.800         455.790
   40          56.757          56.757         124.046         311.964         311.964         398.038         446.281         446.281         459.922
   41          58.196          58.196         126.566         310.319         310.319         395.904         446.767         446.767         464.034
   42          59.628          59.628         129.053         308.652         308.652         393.703         447.257         447.257         468.123
   43          61.055          61.055         131.506         306.963         306.963         391.435         447.752         447.752         472.184
   44          62.475          62.475         133.924         305.255         305.255         389.100         448.249         448.249         476.213
   45          63.888          63.888         136.310         303.529         303.529         386.698         448.750         448.750         480.206
   46          65.293          65.293         138.661         301.786         301.786         384.230         449.253         449.253         484.159
   47          66.691          66.691         140.978         300.027         300.027         381.696         449.758         449.758         488.068
   48          68.079          68.079         143.262         298.255         298.255         379.096         450.265         450.265         491.931
   49          69.458          69.458         145.511         296.470         296.470         376.433         450.773         450.773         495.744
   50          70.828          70.828         147.726         294.674         294.674         373.707         451.281         451.281         499.504
   51          72.187          72.187         149.907         292.869         292.869         370.918         451.790         451.790         503.208
   52          73.535          73.535         152.053         291.056         291.056         368.069         452.298         452.298         506.854
   53          74.872          74.872         154.164         289.236         289.236         365.160         452.806         452.806         510.439
   54          76.196          76.196         156.241         287.412         287.412         362.194         453.312         453.312         513.961
   55          77.508          77.508         158.283         285.584         285.584         359.172         453.817         453.817         517.419
   56          78.806          78.806         160.289         283.755         283.755         356.096         454.319         454.319         520.809
   57          80.091          80.091         162.260         281.926         281.926         352.969         454.820         454.820         524.131
   58          81.361          81.361         164.195         280.098         280.098         349.793         455.317         455.317         527.383
   59          82.617          82.617         166.093         278.274         278.274         346.570         455.810         455.810         530.563
   60          83.856          83.856         167.956         276.455         276.455         343.303         456.299         456.299         533.671
   61          85.080          85.080         169.781         274.643         274.643         339.996         456.785         456.785         536.704
   62          86.287          86.287         171.570         272.840         272.840         336.652         457.265         457.265         539.662
   63          87.476          87.476         173.321         271.047         271.047         333.273         457.740         457.740         542.545
   64          88.648          88.648         175.034         269.266         269.266         329.864         458.209         458.209         545.351
   65          89.801          89.801         176.709         267.499         267.499         326.430         458.671         458.671         548.080
   66          90.935          90.935         178.345         265.747         265.747         322.973         459.128         459.128         550.731
   67          92.050          92.050         179.942         264.014         264.014         319.498         459.577         459.577         553.303
   68          93.144          93.144         181.500         262.300         262.300         316.011         460.018         460.018         555.798
   69          94.217          94.217         183.018         260.607         260.607         312.516         460.452         460.452         558.213
   70          95.268          95.268         184.496         258.937         258.937         309.018         460.877         460.877         560.550
   71          96.298          96.298         185.933         257.293         257.293         305.523         461.293         461.293         562.807
   72          97.304          97.304         187.329         255.676         255.676         302.037         461.700         461.700         564.986
   73          98.287          98.287         188.684         254.088         254.088         298.565         462.097         462.097         567.085
   74          99.246          99.246         189.996         252.531         252.531         295.114         462.485         462.485         569.106
   75         100.180         100.180         191.265         251.007         251.007         291.690         462.862         462.862         571.048
   76         101.088         101.088         192.492         249.519         249.519         288.301         463.228         463.228         572.912
   77         101.970         101.970         193.675         248.067         248.067         284.952         463.583         463.583         574.698
   78         102.825         102.825         194.814         246.654         246.654         281.653         463.927         463.927         576.407
   79         103.652         103.652         195.909         245.282         245.282         278.409         464.259         464.259         578.038
   80         104.451         104.451         196.959         243.953         243.953         275.228         464.578         464.578         579.592
   81         105.220         105.220         197.964         242.669         242.669         272.120         464.885         464.885         581.069
   82         105.958         105.958         198.923         241.432         241.432         269.091         465.179         465.179         582.471
   83         106.666         106.666         199.835         240.244         240.244         266.150         465.460         465.460         583.797
   84         107.342         107.342         200.701         239.107         239.107         263.304         465.728         465.728         585.047
   85         107.985         107.985         201.520         238.023         238.023         260.564         465.981         465.981         586.224
   86         108.595         108.595         202.292         236.993         236.993         257.936         466.221         466.221         587.326
   87         109.170         109.170         203.016         236.019         236.019         255.429         466.447         466.447         588.354
   88         109.710         109.710         203.691         235.105         235.105         253.052         466.658         466.658         589.309
   89         110.214         110.214         204.318         234.250         234.250         250.812         466.854         466.854         590.191
   90         110.682         110.682         204.896         233.456         233.456         248.717         467.035         467.035         591.001
   91         111.111         111.111         205.425         232.726         232.726         246.776         467.202         467.202         591.739
   92         111.502         111.502         205.905         232.061         232.061         244.995         467.353         467.353         592.406
   93         111.854         111.854         206.335         231.461         231.461         243.381         467.488         467.488         593.001
   94         112.167         112.167         206.714         230.929         230.929         241.941         467.608         467.608         593.526
   95         112.439         112.439         207.044         230.466         230.466         240.680         467.712         467.712         593.980
   96         112.670         112.670         207.323         230.072         230.072         239.604         467.801         467.801         594.363
   97         112.860         112.860         207.552         229.748         229.748         238.717         467.873         467.873         594.677
   98         113.008         113.008         207.730         229.496         229.496         238.023         467.930         467.930         594.921
   99         113.114         113.114         207.857         229.315         229.315         237.525         467.970         467.970         595.095
  100         113.177         113.177         207.933         229.207         229.207         237.226         467.994         467.994         595.199
  101         113.198         113.198         207.959         229.170         229.170         237.126         468.002         468.002         595.234
  102         113.208         113.231         207.904         229.118         229.323         237.174         467.973         468.009         595.227
  103         113.236         113.328         207.743         228.966         229.777         237.313         467.886         468.029         595.207
  104         113.282         113.490         207.487         228.723         230.521         237.534         467.740         468.063         595.174
  105         113.347         113.716         207.148         228.404         231.537         237.824         467.536         468.109         595.128
  106         113.430         114.005         206.742         228.022         232.809         238.168         467.273         468.169         595.069
  107         113.530         114.356         206.283         227.591         234.317         238.553         466.951         468.242         594.998
  108         113.648         114.769         205.782         227.120         236.044         238.970         466.571         468.328         594.914
  109         113.782         115.243         205.248         226.620         237.976         239.408         466.130         468.425         594.817
  110         113.932         115.775         204.688         226.096         239.862         240.099         465.631         468.535         594.709
  111         114.098         116.365         204.107         225.556         240.327         242.400         465.071         468.657         594.590
  112         114.278         117.011         203.507         225.002         240.797         244.870         464.451         468.790         594.459
  113         114.472         117.711         202.889         224.439         241.269         247.498         463.769         468.934         594.318
  114         114.679         118.463         202.255         223.870         241.742         250.275         463.027         469.088         594.166
  115         114.898         119.265         201.604         223.297         242.213         253.191         462.222         469.253         594.005
  116         115.128         120.117         200.937         222.722         242.679         256.239         461.356         469.426         593.834
  117         115.368         121.014         200.253         222.148         243.141         259.408         460.426         469.609         593.655
  118         115.617         121.956         199.550         221.575         243.595         262.691         459.433         469.799         593.468
  119         115.873         122.940         198.829         221.006         244.042         266.079         458.375         469.997         593.274
  120         116.137         123.964         198.090         220.442         244.481         269.562         457.253         470.202         593.074
  121         116.407         125.026         197.330         219.884         244.910         273.134         456.066         470.413         592.867
  122         116.681         126.124         196.550         219.332         245.329         276.786         454.813         470.629         592.655
  123         116.959         127.255         195.749         218.790         245.738         280.509         453.493         470.849         592.439
  124         117.239         128.418         194.927         218.257         246.135         284.295         452.106         471.073         592.220
  125         117.520         129.610         194.083         217.734         246.521         288.138         450.651         471.300         591.998
  126         117.802         130.829         193.217         217.222         246.895         292.029         449.128         471.529         591.774
  127         118.082         132.073         192.329         216.723         247.257         295.960         447.536         471.759         591.549
  128         118.361         133.340         191.419         216.237         247.606         299.925         445.875         471.989         591.324
  129         118.636         134.628         190.487         215.765         247.941         303.918         444.143         472.219         591.100
  130         118.907         135.935         189.532         215.307         248.264         307.930         442.341         472.447         590.877
  131         119.173         137.260         188.556         214.866         248.573         311.957         440.468         472.672         590.657
  132         119.433         138.599         187.557         214.441         248.868         315.991         438.524         472.893         590.441
  133         119.686         139.953         186.536         214.033         249.149         320.027         436.507         473.110         590.229
  134         119.930         141.318         185.494         213.642         249.416         324.060         434.419         473.322         590.022
  135         120.166         142.693         184.431         213.271         249.668         328.084         432.258         473.527         589.822
  136         120.391         144.076         183.346         212.918         249.906         332.094         430.024         473.726         589.629
  137         120.606         145.467         182.241         212.585         250.129         336.085         427.717         473.916         589.443
  138         120.810         146.862         181.115         212.273         250.337         340.054         425.338         474.097         589.267
  139         121.001         148.262         179.970         211.981         250.531         343.994         422.885         474.268         589.100
  140         121.180         149.664         178.805         211.711         250.709         347.903         420.360         474.429         588.943
  141         121.345         151.067         177.622         211.463         250.872         351.777         417.761         474.578         588.798
  142         121.496         152.470         176.420         211.237         251.020         355.612         415.091         474.716         588.664
  143         121.633         153.871         175.201         211.034         251.152         359.404         412.348         474.841         588.542
  144         121.754         155.269         173.964         210.854         251.269         363.151         409.533         474.953         588.433
  145         121.861         156.664         172.711         210.697         251.370         366.850         406.648         475.050         588.338
  146         121.951         158.053         171.442         210.564         251.456         370.498         403.691         475.134         588.256
  147         122.026         159.436         170.158         210.454         251.527         374.092         400.666         475.203         588.189
  148         122.084         160.812         168.859         210.369         251.582         377.629         397.571         475.257         588.137
  149         122.126         162.179         167.547         210.308         251.621         381.109         394.409         475.296         588.099
  150         122.151         163.538         166.222         210.271         251.644         384.529         391.180         475.319         588.076
  151         122.159         164.886         164.886         210.259         251.652         387.886         387.886         475.327         588.069
  152         122.151         163.538         166.222         210.271         251.644         384.529         391.180         475.319         588.076
  153         122.126         162.179         167.547         210.308         251.621         381.109         394.409         475.296         588.099
  154         122.084         160.812         168.859         210.369         251.582         377.629         397.571         475.257         588.137
  155         122.026         159.436         170.158         210.454         251.527         374.092         400.666         475.203         588.189
  156         121.951         158.053         171.442         210.564         251.456         370.498         403.691         475.134         588.256
  157         121.861         156.664         172.711         210.697         251.370         366.850         406.648         475.050         588.338
  158         121.754         155.269         173.964         210.854         251.269         363.151         409.533         474.953         588.433
  159         121.633         153.871         175.201         211.034         251.152         359.404         412.348         474.841         588.542
  160         121.496         152.470         176.420         211.237         251.020         355.612         415.091         474.716         588.664
  161         121.345         151.067         177.622         211.463         250.872         351.777         417.761         474.578         588.798
  162         121.180         149.664         178.805         211.711         250.709         347.903         420.360         474.429         588.943
  163         121.001         148.262         179.970         211.981         250.531         343.994         422.885         474.268         589.100
  164         120.810         146.862         181.115         212.273         250.337         340.054         425.338         474.097         589.267
  165         120.606         145.467         182.241         212.585         250.129         336.085         427.717         473.916         589.443
  166         120.391         144.076         183.346         212.918         249.906         332.094         430.024         473.726         589.629
  167         120.166         142.693         184.431         213.271         249.668         328.084         432.258         473.527         589.822
  168         119.930         141.318         185.494         213.642         249.416         324.060         434.419         473.322         590.022
  169         119.686         139.953         186.536         214.033         249.149         320.027         436.507         473.110         590.229
  170         119.433         138.599         187.557         214.441         248.868         315.991         438.524         472.893         590.441
  171         119.173         137.260         188.556         214.866         248.573         311.957         440.468         472.672         590.657
  172         118.907         135.935         189.532         215.307         248.264         307.930         442.341         472.447         590.877
  173         118.636         134.628         190.487         215.765         247.941         303.918         444.143         472.219         591.100
  174         118.361         133.340         191.419         216.237         247.606         299.925         445.875         471.989         591.324
  175         118.082         132.073         192.329         216.723         247.257         295.960         447.536         471.759         591.549
  176         117.802         130.829         193.217         217.222         246.895         292.029         449.128         471.529         591.774
  177         117.520         129.610         194.083         217.734         246.521         288.138         450.651         471.300         591.998
  178         117.239         128.418         194.927         218.257         246.135         284.295         452.106         471.073         592.220
  179         116.959         127.255         195.749         218.790         245.738         280.509         453.493         470.849         592.439
  180         116.681         126.124         196.550         219.332         245.329         276.786         454.813         470.629         592.655
  181         116.407         125.026         197.330         219.884         244.910         273.134         456.066         470.413         592.867
  182         116.137         123.964         198.090         220.442         244.481         269.562         457.253         470.202         593.074
  183         115.873         122.940         198.829         221.006         244.042         266.079         458.375         469.997         593.274
  184         115.617         121.956         199.550         221.575         243.595         262.691         459.433         469.799         593.468
  185         115.368         121.014         200.253         222.148         243.141         259.408         460.426         469.609         593.655
  186         115.128         120.117         200.937         222.722         242.679         256.239         461.356         469.426         593.834
  187         114.898         119.265         201.604         223.297         242.213         253.191         462.222         469.253         594.005
  188         114.679         118.463         202.255         223.870         241.742         250.275         463.027         469.088         594.166
  189         114.472         117.711         202.889         224.439         241.269         247.498         463.769         468.934         594.318
  190         114.278         117.011         203.507         225.002         240.797         244.870         464.451         468.790         594.459
  191         114.098         116.365         204.107         225.556         240.327         242.400         465.071         468.657         594.590
  192         113.932         115.775         204.688         226.096         239.862         240.099         465.631         468.535         594.709
  193         113.782         115.243         205.248         226.620         237.976         239.408         466.130         468.425         594.817
  194         113.648         114.769         205.782         227.120         236.044         238.970         466.571         468.328         594.914
  195         113.530         114.356         206.283         227.591         234.317         238.553         466.951         468.242         594.998
  196         113.430         114.005         206.742         228.022         232.809         238.168         467.273         468.169         595.069
  197         113.347         113.716         207.148         228.404         231.537         237.824         467.536         468.109         595.128
  198         113.282         113.490         207.487         228.723         230.521         237.534         467.740         468.063         595.174
  199         113.236         113.328         207.743         228.966         229.777         237.313         467.886         468.029         595.207
  200         113.208         113.231         207.904         229.118         229.323         237.174         467.973         468.009         595.227
  201         113.198         113.198         207.959         229.170         229.170         237.126         468.002         468.002         595.234
  202         113.196         113.244         207.903         229.215         229.228         237.175         467.980         468.002         595.227
  203         113.187         113.380         207.737         229.344         229.401         237.326         467.914         467.999         595.207
  204         113.173         113.606         207.468         229.541         229.688         237.586         467.804         467.995         595.173
  205         113.154         113.920         207.107         229.785         230.090         237.968         467.650         467.989         595.125
  206         113.129         114.322         206.664         230.049         230.605         238.484         467.453         467.981         595.064
  207         113.098         114.807         206.152         230.310         231.231         239.147         467.211         467.971         594.989
  208         113.062         115.375         205.583         230.547         231.967         239.964         466.927         467.959         594.901
  209         113.020         116.022         204.967         230.748         232.812         240.934         466.599         467.945         594.798
  210         112.973         116.744         204.313         230.909         233.764         242.054         466.228         467.929         594.681
  211         112.920         117.539         203.627         231.029         234.819         243.313         465.814         467.910         594.550
  212         112.861         118.401         202.917         231.113         235.976         244.700         465.358         467.888         594.404
  213         112.798         119.327         202.186         231.166         237.232         246.205         464.860         467.863         594.243
  214         112.729         120.312         201.437         231.193         238.584         247.816         464.320         467.836         594.067
  215         112.654         121.352         200.674         231.200         240.029         249.524         463.739         467.805         593.876
  216         112.574         122.443         199.897         231.189         241.564         251.322         463.117         467.770         593.669
  217         112.489         123.579         199.108         231.167         243.186         253.201         462.455         467.731         593.446
  218         112.398         124.756         198.307         231.137         244.892         255.155         461.753         467.688         593.207
  219         112.302         125.969         197.495         231.100         246.677         257.180         461.012         467.640         592.951
  220         112.201         127.213         196.671         231.062         248.539         259.270         460.232         467.587         592.678
  221         112.095         128.485         195.834         231.024         250.474         261.420         459.413         467.529         592.387
  222         111.983         129.779         194.986         230.988         252.478         263.626         458.558         467.465         592.079
  223         111.866         131.091         194.123         230.957         254.548         265.886         457.665         467.395         591.752
  224         111.744         132.417         193.246         230.934         256.681         268.194         456.736         467.318         591.406
  225         111.617         133.752         192.354         230.919         258.871         270.548         455.771         467.234         591.040
  226         111.484         135.093         191.446         230.917         261.117         272.944         454.772         467.143         590.655
  227         111.347         136.435         190.520         230.927         263.414         275.379         453.739         467.044         590.249
  228         111.204         137.775         189.577         230.953         265.759         277.851         452.672         466.937         589.821
  229         111.055         139.109         188.614         230.995         268.149         280.355         451.574         466.820         589.372
  230         110.902         140.434         187.631         231.057         270.579         282.890         450.443         466.695         588.900
  231         110.743         141.746         186.627         231.139         273.047         285.452         449.282         466.559         588.405
  232         110.579         143.043         185.601         231.243         275.549         288.038         448.092         466.414         587.886
  233         110.410         144.321         184.552         231.371         278.082         290.646         446.872         466.257         587.342
  234         110.235         145.578         183.481         231.524         280.643         293.273         445.625         466.090         586.773
  235         110.054         146.811         182.385         231.704         283.228         295.917         444.350         465.911         586.178
  236         109.868         148.017         181.264         231.912         285.836         298.574         443.050         465.720         585.555
  237         109.677         149.195         180.118         232.150         288.461         301.243         441.725         465.516         584.905
  238         109.479         150.341         178.947         232.419         291.103         303.921         440.376         465.300         584.225
  239         109.276         151.454         177.749         232.719         293.757         306.605         439.005         465.070         583.516
  240         109.066         152.532         176.525         233.053         296.422         309.293         437.611         464.827         582.777
  241         108.850         153.573         175.275         233.420         299.095         311.982         436.197         464.570         582.005
  242         108.628         154.576         173.997         233.822         301.772         314.672         434.764         464.299         581.201
  243         108.399         155.538         172.693         234.260         304.453         317.358         433.312         464.013         580.364
  244         108.164         156.458         171.362         234.735         307.133         320.040         431.844         463.713         579.492
  245         107.922         157.336         170.004         235.246         309.812         322.715         430.359         463.398         578.585
  246         107.672         158.168         168.619         235.795         312.487         325.381         428.859         463.068         577.641
  247         107.415         158.955         167.207         236.382         315.155         328.036         427.346         462.723         576.660
  248         107.150         159.696         165.769         237.008         317.815         330.679         425.821         462.363         575.640
  249         106.877         160.388         164.305         237.672         320.464         333.307         424.284         461.987         574.581
  250         106.595         161.032         162.814         238.376         323.102         335.919         422.738         461.596         573.481
  251         106.305         161.298         161.625         239.119         325.725         338.512         421.183         461.190         572.339
  252         106.006         159.756         162.169         239.900         328.333         341.086         419.621         460.769         571.155
  253         105.698         158.190         162.660         240.721         330.924         343.639         418.052         460.332         569.928
  254         105.379         156.599         163.100         241.581         333.495         346.170         416.479         459.881         568.656
  255         105.050         154.984         163.487         242.480         336.047         348.676         414.902         459.415         567.339
  256         104.711         153.345         163.820         243.418         338.576         351.156         413.323         458.935         565.976
  257         104.361         151.683         164.099         244.394         341.082         353.610         411.743         458.440         564.565
  258         103.999         149.999         164.324         245.408         343.564         356.035         410.164         457.932         563.107
  259         103.624         148.293         164.493         246.459         346.020         358.431         408.586         457.410         561.600
  260         103.238         146.565         164.607         247.547         348.449         360.797         407.011         456.875         560.043
  261         102.838         144.817         164.664         248.672         350.851         363.131         405.440         456.327         558.436
  262         102.424         143.049         164.665         249.832         353.223         365.432         403.875         455.766         556.779
  263         101.996         141.261         164.610         251.026         355.565         367.700         402.316         455.193         555.071
  264         101.554         139.455         164.497         252.255         357.877         369.933         400.765         454.608         553.310
  265         101.096         137.630         164.326         253.518         360.157         372.131         399.224         454.012         551.498
  266         100.622         135.788         164.098         254.812         362.405         374.292         397.692         453.406         549.633
  267         100.132         133.930         163.812         256.138         364.619         376.417         396.173         452.788         547.716
  268          99.625         132.055         163.467         257.494         366.800         378.503         394.666         452.161         545.746
  269          99.100         130.166         163.064         258.879         368.946         380.552         393.173         451.524         543.723
  270          98.556         128.262         162.602         260.293         371.057         382.561         391.696         450.877         541.648
  271          97.994         126.344         162.081         261.734         373.132         384.531         390.234         450.221         539.520
  272          97.412         124.413         161.501         263.200         375.171         386.461         388.790         449.557         537.341
  273          96.810         122.470         160.863         264.691         377.175         387.364         388.350         448.884         535.109
  274          96.187         120.516         160.165         266.206         379.141         385.957         390.199         448.202         532.827
  275          95.542         118.551         159.408         267.742         381.070         384.571         392.006         447.512         530.495
  276          94.876         116.577         158.592         269.299         382.962         383.206         393.772         446.814         528.114
  277          94.187         114.594         157.717         270.876         381.863         384.816         395.496         446.108         525.685
  278          93.475         112.602         156.783         272.470         380.543         386.632         397.178         445.392         523.210
  279          92.740         110.604         155.790         274.081         379.247         388.410         398.818         444.668         520.689
  280          91.980         108.598         154.738         275.707         377.975         390.150         400.416         443.935         518.126
  281          91.196         106.588         153.627         277.347         376.729         391.852         401.972         443.191         515.522
  282          90.387         104.572         152.458         278.999         375.509         393.516         403.485         442.437         512.879
  283          89.552         102.552         151.231         280.662         374.315         395.142         404.956         441.671         510.200
  284          88.691         100.530         149.946         282.334         373.148         396.730         406.385         440.892         507.488
  285          87.804          98.505         148.604         284.014         372.010         398.279         407.772         440.098         504.748
  286          86.890          96.479         147.204         285.701         370.899         399.791         409.116         439.288         501.981
  287          85.949          94.452         145.747         287.392         369.817         401.264         410.419         438.459         499.193
  288          84.980          92.425         144.233         289.086         368.763         402.701         411.680         437.609         496.389
  289          83.984          90.400         142.663         290.782         367.739         404.099         412.900         436.734         493.574
  290          82.960          88.376         141.037         292.478         366.745         405.461         414.079         435.831         490.755
  291          81.908          86.355         139.356         294.173         365.779         406.785         415.218         434.896         487.937
  292          80.828          84.338         137.620         295.866         364.844         408.073         416.316         433.923         485.129
  293          79.719          82.325         135.830         297.554         363.938         409.325         417.374         432.908         482.338
  294          78.583          80.317         133.986         299.236         363.062         410.540         418.393         431.843         479.575
  295          77.418          78.316         132.088         300.911         362.216         411.720         419.373         430.721         476.849
  296          76.224          76.320         130.138         302.577         361.399         412.864         420.314         429.536         474.170
  297          74.333          75.003         128.135         304.233         360.612         413.974         421.218         428.278         471.552
  298          72.354          73.753         126.081         305.877         359.854         415.048         422.084         426.939         469.005
  299          70.383          72.475         123.976         307.508         359.125         416.089         422.914         425.510         466.543
  300          68.423          71.170         121.821         309.125         358.425         417.096         423.708         423.983         464.175
  301          66.473          69.837         119.616         310.725         357.753         418.070         422.351         424.466         461.915
  302          64.533          68.477         117.361         312.308         357.109         419.011         420.608         425.189         459.771
  303          62.606          67.089         115.059         313.872         356.492         418.750         419.920         425.879         457.750
  304          60.690          65.675         112.708         315.416         355.903         416.778         420.797         426.535         455.857
  305          58.788          64.235         110.311         316.938         355.340         414.693         421.642         427.159         454.094
  306          56.899          62.769         107.867         318.437         354.803         412.501         422.457         427.751         452.461
  307          55.024          61.277         105.377         319.912         354.291         410.208         423.241         428.312         450.954
  308          53.163          59.761         102.843         321.361         353.804         407.826         423.996         428.844         449.568
  309          51.317          58.220         100.264         322.783         353.342         405.367         424.721         429.346         448.295
  310          49.487          56.655          97.641         324.177         352.903         402.841         425.417         429.819         447.129
  311          47.671          55.067          94.976         325.542         352.487         400.264         426.085         430.266         446.059
  312          45.872          53.456          92.268         326.876         352.093         397.648         426.726         430.685         445.079
  313          44.089          51.822          89.519         328.178         351.721         395.006         427.339         431.079         444.179
  314          42.322          50.168          86.730         329.446         351.369         392.351         427.925         431.448         443.353
  315          40.572          48.492          83.901         330.680         351.038         389.695         428.484         431.793         442.594
  316          38.838          46.796          81.033         331.879         350.727         387.050         429.018         432.116         441.895
  317          37.121          45.081          78.127         333.041         350.434         384.426         429.527         432.416         441.251
  318          35.421          43.346          75.183         334.166         350.159         381.833         430.011         432.695         440.657
  319          33.737          41.594          72.204         335.251         349.902         379.282         430.470         432.954         440.108
  320          32.070          39.824          69.189         336.296         349.662         376.781         430.906         433.193         439.601
  321          30.419          38.038          66.139         337.301         349.438         374.339         431.318         433.414         439.133
  322          28.784          36.235          63.057         338.264         349.229         371.964         431.707         433.618         438.700
  323          27.164          34.417          59.942         339.183         349.035         369.664         432.073         433.805         438.300
  324          25.560          32.585          56.796         340.059         348.855         367.445         432.418         433.976         437.931
  325          23.971          30.740          53.621         340.890         348.689         365.316         432.740         434.133         437.590
  326          22.396          28.881          50.417         341.675         348.536         363.281         433.041         434.275         437.277
  327          20.835          27.010          47.186         342.414         348.396         361.349         433.320         434.404         436.989
  328          19.288          25.128          43.929         343.106         348.268         359.523         433.579         434.521         436.726
  329          17.753          23.236          40.647         343.749         348.151         357.811         433.818         434.625         436.486
  330          16.229          21.334          37.343         344.344         348.045         356.216         434.036         434.719         436.268
  331          14.717          19.423          34.018         344.889         347.950         354.743         434.234         434.802         436.071
  332          13.215          17.504          30.674         345.385         347.865         353.398         434.413         434.875         435.896
  333          11.722          15.577          27.311         345.829         347.790         352.183         434.572         434.939         435.740
  334          10.238          13.644          23.933         346.223         347.725         351.103         434.712         434.994         435.604
  335           8.761          11.706          20.541         346.565         347.669         350.160         434.833         435.041         435.487
  336           7.291           9.762          17.136         346.855         347.622         349.357         434.935         435.080         435.388
  337           5.826           7.815          13.721         347.093         347.584         348.697         435.018         435.111         435.308
  338           4.366           5.864          10.298         347.278         347.555         348.182         435.083         435.136         435.246
  339           2.909           3.911           6.869         347.411         347.534         347.813         435.129         435.153         435.201
  340           1.454           1.956           3.435         347.490         347.521         347.591         435.157         435.163         435.175
  341           0.000           0.000           0.000         347.517         347.517         347.517         435.166         435.166         435.166
  342           1.819           1.819           3.380         347.511         347.511         347.582         435.163         435.163         435.169
  343           3.638           3.638           6.760         347.492         347.492         347.776         435.153         435.153         435.177
  344           5.456           5.456          10.136         347.462         347.462         348.100         435.137         435.137         435.190
  345           7.271           7.271          13.510         347.419         347.419         348.552         435.114         435.114         435.210
  346           9.085           9.085          16.878         347.365         347.365         349.130         435.084         435.084         435.235
  347          10.895          10.895          20.241         347.299         347.299         349.832         435.047         435.047         435.266
  348          12.701          12.701          23.596         347.222         347.222         350.658         435.003         435.003         435.304
  349          14.502          14.502          26.944         347.134         347.134         351.603         434.951         434.951         435.349
  350          16.299          16.299          30.282         347.036         347.036         352.665         434.892         434.892         435.402
  351          18.090          18.090          33.609         346.929         346.929         353.840         434.825         434.825         435.462
  352          19.874          19.874          36.926         346.813         346.813         355.126         434.750         434.750         435.532
  353          21.651          21.651          40.230         346.689         346.689         356.517         434.666         434.666         435.611
  354          23.421          23.421          43.520         346.557         346.557         358.009         434.574         434.574         435.702
  355          25.182          25.182          46.796         346.419         346.419         359.598         434.472         434.472         435.803
  356          26.934          26.934          50.057         346.276         346.276         361.278         434.360         434.360         435.918
  357          28.676          28.676          53.302         346.127         346.127         363.044         434.238         434.238         436.048
  358          30.407          30.407          56.530         345.975         345.975         364.890         434.105         434.105         436.193
  359          32.127          32.127          59.740         345.821         345.821         366.810         433.961         433.961         436.356
  360          33.835          33.835          62.930         345.664         345.664         368.798         433.805         433.805         436.539
  361          35.531          35.531          66.102         345.508         345.508         370.846         433.637         433.637         436.743
  362          37.213          37.213          69.252         345.352         345.352         372.949         433.456         433.456         436.972
  363          38.880          38.880          72.381         345.198         345.198         375.097         433.263         433.263         437.228
  364          40.533          40.533          75.488         345.048         345.048         377.284         433.055         433.055         437.514
  365          42.170          42.170          78.571         344.902         344.902         379.501         432.833         432.833         437.834
  366          43.791          43.791          81.630         344.761         344.761         381.739         432.596         432.596         438.191
  367          45.394          45.394          84.664         344.628         344.628         383.989         432.343         432.343         438.591
  368          46.980          46.980          87.672         344.504         344.504         386.243         432.075         432.075         439.036
  369          48.546          48.546          90.653         344.389         344.389         388.489         431.790         431.790         439.534
  370          50.093          50.093          93.606         344.286         344.286         390.718         431.487         431.487         440.090
  371          51.620          51.620          96.530         344.196         344.196         392.919         431.167         431.167         440.708
  372          53.126          53.126          99.424         344.119         344.119         395.081         430.829         430.829         441.397
  373          54.610          54.610         102.287         344.058         344.058         397.194         430.472         430.472         442.162
  374          56.072          56.072         105.118         344.014         344.014         399.246         430.095         430.095         443.009
  375          57.510          57.510         107.916         343.988         343.988         401.227         429.699         429.699         443.945
  376          58.925          58.925         110.679         343.982         343.982         403.128         429.282         429.282         444.975
  377          60.315          60.315         113.406         343.997         343.997         404.940         428.845         428.845         446.102
  378          61.679          61.679         116.097         344.033         344.033         406.657         428.386         428.386         447.331
  379          63.018          63.018         118.750         344.094         344.094         408.274         427.905         427.905         448.661
  380          64.330          64.330         121.364         344.179         344.179         409.788         427.403         427.403         450.092
  381          65.615          65.615         123.937         344.289         344.289         411.198         426.878         426.878         451.620
  382          66.872          66.872         126.469         344.427         344.427         412.506         426.330         426.330         453.241
  383          68.101          68.101         128.958         344.593         344.593         413.715         425.759         425.759         454.947
  384          69.301          69.301         131.403         344.788         344.788         414.830         425.164         425.164         456.730
  385          70.472          70.472         133.803         345.013         345.013         415.858         424.546         424.546         458.581
  386          71.613          71.613         136.157         345.269         345.269         416.805         423.904         423.904         460.490
  387          72.724          72.724         138.463         345.557         345.557         417.678         423.238         423.238         462.446
  388          73.804          73.804         140.721         345.878         345.878         418.484         422.547         422.547         464.439
  389          74.854          74.854         142.929         346.232         346.232         419.230         421.832         421.832         466.459
  390          75.872          75.872         145.086         346.619         346.619         419.924         421.092         421.092         468.497
  391          76.859          76.859         147.192         347.041         347.041         420.328         420.328         420.570         470.544
  392          77.815          77.815         149.244         347.498         347.498         419.539         419.539         421.175         472.591
  393          78.739          78.739         151.243         347.990         347.990         418.725         418.725         421.743         474.631
  394          79.632          79.632         153.187         348.517         348.517         417.887         417.887         422.279         476.657
  395          80.492          80.492         155.076         349.080         349.080         417.025         417.025         422.786         478.662
  396          81.321          81.321         156.908         349.678         349.678         416.138         416.138         423.268         480.642
  397          82.119          82.119         158.683         350.311         350.311         415.228         415.228         423.727         482.590
  398          82.885          82.885         160.401         350.980         350.980         414.293         414.293         424.166         484.502
  399          83.619          83.619         162.061         351.685         351.685         413.336         413.336         424.587         486.374
  400          84.322          84.322         163.661         352.423         352.423         412.355         412.355         424.991         488.201
  401          84.995          84.995         165.203         353.197         353.197         411.352         411.352         425.380         489.980
  402          85.636          85.636         166.684         354.004         354.004         410.326         410.326         425.754         491.709
  403          86.247          86.247         168.106         354.844         354.844         409.278         409.278         426.115         493.383
  404          86.828          86.828         169.467         355.717         355.717         408.210         408.210         426.463         495.001
  405          87.379          87.379         170.767         356.622         356.622         407.121         407.121         426.798         496.560
  406          87.901          87.901         172.007         357.558         357.558         406.012         406.012         427.120         498.057
  407          88.393          88.393         173.186         358.525         358.525         404.883         404.883         427.430         499.492
  408          88.858          88.858         174.303         359.520         359.520         403.736         403.736         427.728         500.862
  409          89.293          89.293         175.360         360.543         360.543         402.572         402.572         428.013         502.165
  410          89.702          89.702         176.355         361.594         361.594         401.390         401.390         428.285         503.400
  411          90.082          90.082         177.289         362.670         362.670         400.193         400.193         428.543         504.566
  412          90.436          90.436         178.162         363.771         363.771         398.980         398.980         428.788         505.662
  413          90.763          90.763         178.975         364.895         364.895         397.754         397.754         429.019         506.686
  414          91.064          91.064         179.726         366.041         366.041         396.514         396.514         429.236         507.637
  415          91.340          91.340         180.416         367.208         367.208         395.262         395.262         429.437         508.516
  416          91.590          91.590         181.046         368.394         368.394         394.000         394.000         429.622         509.320
  417          91.815          91.815         181.615         369.598         369.598         392.728         392.728         429.792         510.050
  418          92.016          92.016         182.124         370.819         370.819         391.447         391.447         429.945         510.704
  419          92.192          92.192         182.573         372.054         372.054         390.159         390.159         430.082         511.282
  420          92.344          92.344         182.962         373.302         373.302         388.866         388.866         430.201         511.785
  421          92.472          92.472         183.290         374.562         374.562         387.568         387.568         430.302         512.210
  422          92.577          92.577         183.559         375.831         375.831         386.268         386.268         430.386         512.559
  423          92.658          92.658         183.768         377.107         377.107         384.969         384.969         430.451         512.830
  424          92.716          92.716         183.917         378.383         378.383         383.676         383.676         430.497         513.024
  425          92.750          92.750         184.006         379.640         379.640         382.409         382.409         430.525         513.141
  426          92.762          92.762         184.036         380.555         380.555         381.490         381.490         430.535         513.179
