# Macroscopic dielectric function obtained with the BS equation.
#  RPA L0 with KS energies and KS wavefunctions     LOCAL FIELD EFFECTS INCLUDED
# RESONANT-ONLY calculation
# Coulomb term constructed with full W(G1,G2)
# Scissor operator energy =  0.8000 [eV]
# Tolerance =  0.0200 0.0200
# npweps  = 51
# npwwfn  = 137
# nbands  = 8
# loband  = 2
# nkibz   = 2
# nkbz    = 32
# Lorentzian broadening =  0.1000 [eV]
# List of q-points for the optical limit:
# q =  0.938821, 0.000000, 0.000000, [Reduced coords] 
# q =  0.000000, 0.938821, 0.000000, [Reduced coords] 
# q =  0.000000, 0.000000, 0.938821, [Reduced coords] 
# q =  0.000000, 0.813043, 0.813043, [Reduced coords] 
# q =  0.813043, 0.000000, 0.813043, [Reduced coords] 
# q =  0.813043, 0.813043, 0.000000, [Reduced coords] 
# omega [eV]    RE(eps(q=1)) IM(eps(q=1) RE(eps(q=2) ) ... 
  0.000   21.7278    0.0000   21.7319    0.0000   21.7305    0.0000   21.7275    0.0000   21.7298    0.0000   21.7322    0.0000
  0.100   21.7432    0.0309   21.7473    0.0310   21.7459    0.0310   21.7430    0.0309   21.7452    0.0309   21.7476    0.0310
  0.200   21.7896    0.0622   21.7937    0.0622   21.7923    0.0622   21.7893    0.0622   21.7916    0.0622   21.7940    0.0622
  0.300   21.8674    0.0940   21.8715    0.0941   21.8701    0.0941   21.8671    0.0940   21.8694    0.0941   21.8718    0.0941
  0.400   21.9773    0.1268   21.9815    0.1269   21.9801    0.1269   21.9771    0.1268   21.9794    0.1268   21.9818    0.1269
  0.500   22.1206    0.1609   22.1248    0.1609   22.1234    0.1609   22.1203    0.1609   22.1227    0.1609   22.1251    0.1609
  0.600   22.2985    0.1966   22.3029    0.1967   22.3014    0.1966   22.2982    0.1966   22.3007    0.1966   22.3032    0.1967
  0.700   22.5130    0.2344   22.5175    0.2345   22.5160    0.2345   22.5128    0.2344   22.5152    0.2344   22.5178    0.2345
  0.800   22.7664    0.2747   22.7710    0.2749   22.7695    0.2748   22.7661    0.2747   22.7687    0.2748   22.7713    0.2749
  0.900   23.0614    0.3183   23.0662    0.3184   23.0646    0.3184   23.0612    0.3183   23.0638    0.3183   23.0665    0.3184
  1.000   23.4016    0.3656   23.4066    0.3658   23.4049    0.3657   23.4013    0.3656   23.4041    0.3657   23.4069    0.3658
  1.100   23.7910    0.4175   23.7962    0.4177   23.7945    0.4177   23.7908    0.4175   23.7936    0.4176   23.7965    0.4177
  1.200   24.2347    0.4750   24.2402    0.4753   24.2383    0.4752   24.2345    0.4750   24.2374    0.4751   24.2404    0.4753
  1.300   24.7388    0.5393   24.7445    0.5396   24.7426    0.5395   24.7385    0.5393   24.7416    0.5394   24.7448    0.5396
  1.400   25.3105    0.6118   25.3165    0.6121   25.3145    0.6120   25.3102    0.6118   25.3135    0.6120   25.3168    0.6121
  1.500   25.9589    0.6944   25.9653    0.6948   25.9632    0.6947   25.9586    0.6944   25.9621    0.6946   25.9656    0.6948
  1.600   26.6950    0.7895   26.7019    0.7900   26.6996    0.7898   26.6948    0.7895   26.6984    0.7898   26.7022    0.7900
  1.700   27.5326    0.9003   27.5400    0.9008   27.5375    0.9006   27.5324    0.9003   27.5363    0.9005   27.5403    0.9008
  1.800   28.4889    1.0308   28.4968    1.0314   28.4941    1.0312   28.4886    1.0308   28.4928    1.0311   28.4971    1.0314
  1.900   29.5855    1.1865   29.5941    1.1873   29.5912    1.1870   29.5852    1.1865   29.5898    1.1869   29.5944    1.1873
  2.000   30.8506    1.3752   30.8600    1.3761   30.8568    1.3758   30.8503    1.3752   30.8552    1.3756   30.8603    1.3761
  2.100   32.3208    1.6075   32.3311    1.6085   32.3277    1.6082   32.3205    1.6075   32.3259    1.6080   32.3315    1.6085
  2.200   34.0450    1.8990   34.0565    1.9002   34.0526    1.8998   34.0447    1.8990   34.0507    1.8996   34.0568    1.9002
  2.300   36.0899    2.2728   36.1027    2.2743   36.0984    2.2738   36.0896    2.2728   36.0963    2.2735   36.1031    2.2743
  2.400   38.5488    2.7647   38.5633    2.7666   38.5584    2.7660   38.5484    2.7647   38.5560    2.7657   38.5636    2.7667
  2.500   41.5562    3.4326   41.5728    3.4351   41.5673    3.4342   41.5559    3.4326   41.5645    3.4338   41.5732    3.4351
  2.600   45.3137    4.3748   45.3330    4.3780   45.3266    4.3769   45.3133    4.3748   45.3233    4.3764   45.3335    4.3780
  2.700   50.1359    5.7698   50.1588    5.7742   50.1512    5.7727   50.1355    5.7698   50.1473    5.7720   50.1593    5.7742
  2.800   56.5396    7.9687   56.5674    7.9750   56.5581    7.9729   56.5392    7.9687   56.5535    7.9719   56.5679    7.9751
  2.900   65.4217   11.7391   65.4565   11.7487   65.4448   11.7455   65.4212   11.7390   65.4390   11.7439   65.4570   11.7488
  3.000   78.4102   19.0082   78.4556   19.0248   78.4403   19.0192   78.4095   19.0079   78.4328   19.0165   78.4561   19.0249
  3.100   98.2638   35.5979   98.3254   35.6321   98.3047   35.6205   98.2630   35.5974   98.2945   35.6151   98.3261   35.6323
  3.200  124.1224   82.8592  124.1968   82.9481  124.1719   82.9179  124.1214   82.8577  124.1595   82.9041  124.1979   82.9487
  3.300   74.4741  199.9108   74.4205  200.0716   74.4398  200.0173   74.4754  199.9072   74.4457  199.9914   74.4222  200.0744
  3.400  -77.9613  139.5317  -78.0186  139.5371  -77.9992  139.5364  -77.9577  139.5306  -77.9900  139.5329  -78.0220  139.5408
  3.500  -66.6258   55.0667  -66.6348   55.0773  -66.6320   55.0741  -66.6219   55.0668  -66.6298   55.0714  -66.6394   55.0781
  3.600  -40.9036   27.7936  -40.8951   27.8103  -40.8981   27.8049  -40.8991   27.7946  -40.8990   27.8017  -40.9002   27.8096
  3.700  -22.4168   17.9154  -22.3897   17.9392  -22.3988   17.9313  -22.4109   17.9174  -22.4030   17.9272  -22.3960   17.9373
  3.800   -8.1590   14.3262   -8.1058   14.3644   -8.1236   14.3517   -8.1508   14.3301   -8.1323   14.3452   -8.1144   14.3605
  3.900    4.7140   14.2624    4.8089   14.3333    4.7772   14.3096    4.7267   14.2704    4.7615   14.2977    4.7959   14.3252
  4.000   18.5969   18.0787   18.7624   18.2347   18.7071   18.1825   18.6176   18.0973   18.6796   18.1563   18.7414   18.2159
  4.100   35.9773   30.2810   36.2399   30.7071   36.1523   30.5644   36.0090   30.3334   36.1086   30.4930   36.2080   30.6540
  4.200   52.6540   69.2766   52.5410   70.6265   52.5809   70.1752   52.6358   69.4454   52.6008   69.9490   52.5613   70.4562
  4.300  -10.3475  135.3039  -13.2138  135.0534  -12.2644  135.1431  -10.7250  135.2599  -11.7851  135.1906  -12.8423  135.1041
  4.400  -74.2672   69.0693  -74.1362   67.5553  -74.1707   68.0567  -74.2390   68.8564  -74.2004   68.3043  -74.1565   67.7651
  4.500  -58.4737   29.2991  -58.0437   28.8416  -58.1931   29.0056  -58.4028   29.2313  -58.2481   29.0730  -58.1221   28.9145
  4.600  -42.4556   16.4813  -42.1998   16.3087  -42.2933   16.3628  -42.4032   16.4610  -42.3402   16.4139  -42.2465   16.3270
  4.700  -30.6036   12.2828  -30.4416   12.1644  -30.5022   12.1925  -30.5752   12.2945  -30.5518   12.2083  -30.4723   12.1754
  4.800  -20.8021   13.1296  -20.6051   12.9459  -20.6506   12.9674  -20.9112   13.0753  -20.6886   12.9514  -20.6304   12.9568
  4.900  -14.7410   21.5317  -14.0860   22.0696  -14.1549   22.0840  -14.0378   21.4362  -14.0955   22.0472  -14.1339   22.0764
  5.000  -27.0666   31.9384  -27.8943   30.5959  -27.8410   30.5670  -28.2677   31.9290  -28.0524   30.6511  -27.8435   30.5772
  5.100  -36.1783   16.4086  -35.6920   16.8079  -35.7325   16.8130  -35.5413   16.2403  -35.6786   16.7954  -35.7269   16.8039
  5.200  -30.5506    7.9286  -30.6324    8.0741  -30.6482    8.0711  -30.5901    8.1683  -30.6531    8.0823  -30.6419    8.0673
  5.300  -25.5700    4.9764  -25.6370    4.9314  -25.6501    4.9312  -25.6775    4.9632  -25.6586    4.9345  -25.6457    4.9290
  5.400  -21.9028    3.6664  -21.8529    3.6035  -21.8654    3.6036  -21.8913    3.6136  -21.8732    3.6046  -21.8626    3.6019
  5.500  -18.8605    3.0662  -18.7937    3.0509  -18.8061    3.0505  -18.8286    3.0533  -18.8136    3.0504  -18.8048    3.0489
  5.600  -16.1406    3.1275  -16.0737    3.1367  -16.0866    3.1349  -16.1079    3.1323  -16.0945    3.1335  -16.0869    3.1330
  5.700  -13.7318    4.4834  -13.6681    4.5314  -13.6823    4.5260  -13.7005    4.5116  -13.6903    4.5212  -13.6845    4.5227
  5.800  -14.8685    7.5513  -14.8883    7.6217  -14.8981    7.6066  -14.8850    7.5930  -14.8993    7.5978  -14.9006    7.5968
  5.900  -17.2252    4.5589  -17.2398    4.5654  -17.2368    4.5555  -17.2386    4.5635  -17.2350    4.5524  -17.2302    4.5477
  6.000  -15.5831    2.3662  -15.5858    2.3696  -15.5832    2.3661  -15.5891    2.3688  -15.5824    2.3649  -15.5772    2.3630
  6.100  -13.9730    1.5761  -13.9725    1.5783  -13.9713    1.5768  -13.9767    1.5779  -13.9711    1.5763  -13.9668    1.5753
  6.200  -12.6880    1.2134  -12.6858    1.2150  -12.6854    1.2142  -12.6902    1.2147  -12.6856    1.2139  -12.6819    1.2133
  6.300  -11.6225    1.0136  -11.6191    1.0150  -11.6192    1.0147  -11.6237    1.0148  -11.6196    1.0144  -11.6164    1.0140
  6.400  -10.6988    0.9019  -10.6943    0.9041  -10.6946    0.9040  -10.6990    0.9034  -10.6951    0.9037  -10.6923    0.9034
  6.500   -9.8692    0.8791   -9.8640    0.8848   -9.8644    0.8849   -9.8687    0.8824   -9.8650    0.8843   -9.8626    0.8843
  6.600   -9.1979    1.0344   -9.2037    1.0475   -9.2045    1.0478   -9.2024    1.0416   -9.2040    1.0465   -9.2030    1.0470
  6.700   -8.9666    1.0044   -8.9740    0.9920   -8.9749    0.9916   -8.9724    0.9992   -8.9744    0.9929   -8.9732    0.9910
  6.800   -8.4430    0.7074   -8.4377    0.7016   -8.4382    0.7015   -8.4423    0.7049   -8.4389    0.7020   -8.4367    0.7011
  6.900   -7.8586    0.5824   -7.8536    0.5805   -7.8541    0.5805   -7.8578    0.5817   -7.8548    0.5807   -7.8528    0.5803
  7.000   -7.3239    0.5237   -7.3195    0.5231   -7.3199    0.5231   -7.3231    0.5236   -7.3205    0.5232   -7.3189    0.5230
  7.100   -6.8259    0.4957   -6.8217    0.4959   -6.8221    0.4960   -6.8250    0.4960   -6.8226    0.4960   -6.8211    0.4959
  7.200   -6.3469    0.4984   -6.3426    0.4997   -6.3428    0.5000   -6.3458    0.4991   -6.3433    0.4999   -6.3420    0.4999
  7.300   -5.8737    0.5674   -5.8695    0.5722   -5.8696    0.5729   -5.8725    0.5696   -5.8700    0.5724   -5.8689    0.5730
  7.400   -5.5071    0.8250   -5.5156    0.8363   -5.5165    0.8380   -5.5110    0.8301   -5.5156    0.8370   -5.5163    0.8384
  7.500   -5.6038    0.8528   -5.6110    0.8345   -5.6127    0.8344   -5.6075    0.8453   -5.6122    0.8365   -5.6128    0.8340
  7.600   -5.3019    0.5466   -5.2936    0.5385   -5.2945    0.5384   -5.2988    0.5433   -5.2956    0.5393   -5.2944    0.5381
  7.700   -4.8795    0.4408   -4.8719    0.4382   -4.8727    0.4382   -4.8765    0.4398   -4.8736    0.4385   -4.8727    0.4381
  7.800   -4.4748    0.4123   -4.4680    0.4118   -4.4686    0.4118   -4.4719    0.4122   -4.4695    0.4119   -4.4688    0.4117
  7.900   -4.0735    0.4227   -4.0666    0.4237   -4.0672    0.4238   -4.0704    0.4233   -4.0680    0.4237   -4.0675    0.4236
  8.000   -3.6516    0.4795   -3.6436    0.4834   -3.6441    0.4835   -3.6479    0.4812   -3.6451    0.4831   -3.6446    0.4834
  8.100   -3.1849    0.6462   -3.1764    0.6594   -3.1768    0.6598   -3.1807    0.6517   -3.1778    0.6583   -3.1775    0.6599
  8.200   -2.7992    1.1539   -2.8205    1.1903   -2.8216    1.1912   -2.8057    1.1688   -2.8190    1.1872   -2.8236    1.1917
  8.300   -3.3147    1.4883   -3.3548    1.4294   -3.3560    1.4281   -3.3304    1.4670   -3.3520    1.4349   -3.3582    1.4252
  8.400   -3.1579    0.9024   -3.1268    0.8718   -3.1263    0.8713   -3.1448    0.8910   -3.1299    0.8746   -3.1266    0.8696
  8.500   -2.5363    0.7697   -2.5026    0.7670   -2.5020    0.7672   -2.5214    0.7695   -2.5057    0.7675   -2.5028    0.7662
  8.600   -1.8266    0.9412   -1.7913    0.9611   -1.7904    0.9622   -1.8101    0.9504   -1.7943    0.9600   -1.7921    0.9611
  8.700   -1.0196    1.5838   -1.0044    1.6621   -1.0040    1.6656   -1.0092    1.6176   -1.0053    1.6568   -1.0071    1.6638
  8.800   -1.0482    3.0971   -1.2432    3.1037   -1.2501    3.1046   -1.1247    3.1119   -1.2292    3.1062   -1.2546    3.0980
  8.900   -1.7004    2.9224   -1.6281    2.7722   -1.6260    2.7692   -1.6742    2.8641   -1.6342    2.7841   -1.6237    2.7622
  9.000   -0.5612    3.9927   -0.4402    4.0197   -0.4376    4.0244   -0.5122    4.0101   -0.4499    4.0221   -0.4351    4.0183
  9.100   -2.9726    7.6404   -3.0118    7.7331   -3.0229    7.7365   -3.0000    7.6844   -3.0206    7.7273   -3.0136    7.7324
  9.200   -7.0299    4.3900   -7.0486    4.3761   -7.0497    4.3701   -7.0417    4.3808   -7.0480    4.3704   -7.0461    4.3722
  9.300   -6.1321    1.8747   -6.1319    1.8706   -6.1310    1.8687   -6.1337    1.8721   -6.1308    1.8687   -6.1291    1.8691
  9.400   -5.1080    1.0444   -5.1067    1.0436   -5.1062    1.0429   -5.1090    1.0440   -5.1062    1.0429   -5.1045    1.0429
  9.500   -4.3545    0.7228   -4.3531    0.7228   -4.3529    0.7224   -4.3554    0.7228   -4.3530    0.7224   -4.3514    0.7223
  9.600   -3.7549    0.5956   -3.7533    0.5959   -3.7533    0.5957   -3.7556    0.5958   -3.7534    0.5956   -3.7519    0.5956
  9.700   -3.2151    0.5867   -3.2132    0.5874   -3.2133    0.5872   -3.2156    0.5871   -3.2135    0.5872   -3.2121    0.5871
  9.800   -2.6611    0.7304   -2.6586    0.7318   -2.6588    0.7317   -2.6612    0.7311   -2.6591    0.7316   -2.6577    0.7316
  9.900   -2.0942    1.2726   -2.0918    1.2769   -2.0923    1.2768   -2.0943    1.2746   -2.0925    1.2764   -2.0912    1.2765
 10.000   -2.5465    2.5091   -2.5524    2.5138   -2.5533    2.5129   -2.5504    2.5113   -2.5529    2.5123   -2.5520    2.5124
