# Macroscopic dielectric function obtained with the BS equation.
#  RPA L0 with KS energies and KS wavefunctions     LOCAL FIELD EFFECTS INCLUDED
# RESONANT-ONLY calculation
# Coulomb term constructed with full W(G1,G2)
# Scissor operator energy =  0.8000 [eV]
# Tolerance =  0.0200 0.0200
# npweps  = 51
# npwwfn  = 137
# nbands  = 8
# loband  = 2
# nkibz   = 2
# nkbz    = 32
# Lorentzian broadening =  0.1000 [eV]
# List of q-points for the optical limit:
# q =  0.938821, 0.000000, 0.000000, [Reduced coords] 
# q =  0.000000, 0.938821, 0.000000, [Reduced coords] 
# q =  0.000000, 0.000000, 0.938821, [Reduced coords] 
# q =  0.000000, 0.813043, 0.813043, [Reduced coords] 
# q =  0.813043, 0.000000, 0.813043, [Reduced coords] 
# q =  0.813043, 0.813043, 0.000000, [Reduced coords] 
# omega [eV]    RE(eps(q=1)) IM(eps(q=1) RE(eps(q=2) ) ... 
  0.000   22.3048    0.0000   22.3086    0.0000   22.3073    0.0000   22.3051    0.0000   22.3067    0.0000   22.3083    0.0000
  0.100   22.3217    0.0339   22.3255    0.0339   22.3242    0.0339   22.3220    0.0339   22.3236    0.0339   22.3252    0.0339
  0.200   22.3725    0.0681   22.3762    0.0681   22.3750    0.0681   22.3727    0.0681   22.3743    0.0681   22.3760    0.0681
  0.300   22.4577    0.1030   22.4615    0.1031   22.4602    0.1031   22.4579    0.1030   22.4595    0.1031   22.4612    0.1031
  0.400   22.5782    0.1391   22.5821    0.1391   22.5808    0.1391   22.5785    0.1391   22.5801    0.1391   22.5818    0.1391
  0.500   22.7353    0.1766   22.7393    0.1767   22.7379    0.1767   22.7356    0.1766   22.7373    0.1767   22.7390    0.1767
  0.600   22.9308    0.2161   22.9348    0.2162   22.9334    0.2162   22.9311    0.2161   22.9328    0.2162   22.9345    0.2162
  0.700   23.1667    0.2581   23.1709    0.2582   23.1695    0.2582   23.1670    0.2581   23.1688    0.2582   23.1706    0.2582
  0.800   23.4459    0.3032   23.4502    0.3033   23.4488    0.3033   23.4463    0.3032   23.4480    0.3032   23.4499    0.3033
  0.900   23.7718    0.3520   23.7762    0.3521   23.7747    0.3521   23.7721    0.3520   23.7740    0.3521   23.7759    0.3521
  1.000   24.1484    0.4054   24.1529    0.4056   24.1514    0.4055   24.1487    0.4054   24.1506    0.4055   24.1526    0.4056
  1.100   24.5807    0.4644   24.5855    0.4646   24.5839    0.4646   24.5811    0.4645   24.5831    0.4645   24.5851    0.4646
  1.200   25.0749    0.5303   25.0799    0.5305   25.0782    0.5305   25.0753    0.5303   25.0774    0.5304   25.0795    0.5305
  1.300   25.6384    0.6045   25.6437    0.6048   25.6420    0.6047   25.6389    0.6045   25.6410    0.6047   25.6433    0.6048
  1.400   26.2804    0.6890   26.2860    0.6894   26.2842    0.6893   26.2809    0.6891   26.2832    0.6892   26.2856    0.6893
  1.500   27.0122    0.7864   27.0181    0.7868   27.0161    0.7866   27.0127    0.7864   27.0151    0.7866   27.0176    0.7867
  1.600   27.8477    0.8998   27.8541    0.9002   27.8520    0.9001   27.8483    0.8998   27.8509    0.9000   27.8536    0.9002
  1.700   28.8047    1.0335   28.8116    1.0340   28.8093    1.0338   28.8053    1.0336   28.8081    1.0338   28.8110    1.0340
  1.800   29.9057    1.1934   29.9132    1.1940   29.9107    1.1938   29.9064    1.1935   29.9094    1.1937   29.9125    1.1940
  1.900   31.1798    1.3876   31.1879    1.3883   31.1851    1.3881   31.1805    1.3877   31.1838    1.3880   31.1871    1.3882
  2.000   32.6651    1.6274   32.6740    1.6283   32.6710    1.6280   32.6660    1.6275   32.6695    1.6279   32.6731    1.6282
  2.100   34.4129    1.9295   34.4228    1.9306   34.4195    1.9303   34.4139    1.9297   34.4178    1.9301   34.4218    1.9305
  2.200   36.4935    2.3190   36.5045    2.3203   36.5008    2.3198   36.4947    2.3192   36.4990    2.3196   36.5034    2.3201
  2.300   39.0060    2.8348   39.0184    2.8364   39.0143    2.8358   39.0074    2.8350   39.0122    2.8356   39.0171    2.8361
  2.400   42.0945    3.5408   42.1087    3.5428   42.1040    3.5421   42.0962    3.5411   42.1016    3.5418   42.1071    3.5425
  2.500   45.9771    4.5473   45.9936    4.5500   45.9880    4.5491   45.9791    4.5477   45.9852    4.5486   45.9916    4.5495
  2.600   50.9982    6.0582   51.0177    6.0619   51.0111    6.0607   51.0007    6.0589   51.0079    6.0601   51.0152    6.0613
  2.700   57.7315    8.4849   57.7552    8.4902   57.7472    8.4884   57.7348    8.4859   57.7433    8.4875   57.7519    8.4891
  2.800   67.1867   12.7552   67.2163   12.7634   67.2063   12.7606   67.1911   12.7569   67.2014   12.7593   67.2118   12.7616
  2.900   81.2010   21.3028   81.2395   21.3173   81.2264   21.3123   81.2072   21.3062   81.2201   21.3100   81.2331   21.3137
  3.000  102.5874   41.8909  102.6391   41.9218  102.6215   41.9110  102.5963   41.8991  102.6131   41.9063  102.6299   41.9130
  3.100  124.3097  103.3433  124.3632  103.4255  124.3454  103.3966  124.3155  103.3673  124.3362  103.3844  124.3576  103.3997
  3.200   23.9575  206.7840   23.8968  206.8724   23.9200  206.8429   23.9213  206.7957   23.9265  206.8277   23.9371  206.8612
  3.300  -78.1684  104.9840  -78.1914  104.9936  -78.1837  104.9918  -78.1732  104.9715  -78.1796  104.9882  -78.1869  105.0084
  3.400  -55.7929   43.5135  -55.7920   43.5263  -55.7926   43.5225  -55.7915   43.5105  -55.7922   43.5197  -55.7941   43.5300
  3.500  -32.7050   23.5759  -32.6894   23.5922  -32.6948   23.5870  -32.7031   23.5760  -32.6970   23.5840  -32.6918   23.5925
  3.600  -16.0829   16.1562  -16.0498   16.1794  -16.0609   16.1717  -16.0800   16.1578  -16.0662   16.1677  -16.0530   16.1779
  3.700   -2.7209   13.7132   -2.6622   13.7513   -2.6819   13.7386   -2.7158   13.7168   -2.6915   13.7322   -2.6676   13.7478
  3.800    9.9539   14.5194   10.0537   14.5919   10.0204   14.5678    9.9630   14.5270   10.0038   14.5556   10.0444   14.5844
  3.900   24.2931   19.6129   24.4626   19.7775   24.4061   19.7225   24.3093   19.6310   24.3778   19.6949   24.4461   19.7592
  4.000   42.6503   35.1265   42.8996   35.5937   42.8166   35.4374   42.6743   35.1798   42.7750   35.3592   42.8754   35.5398
  4.100   54.9077   84.4670   54.5132   85.8675   54.6477   85.4002   54.8516   84.6295   54.7144   85.1658   54.5720   85.7042
  4.200  -32.8886  133.6822  -35.0967  132.6406  -34.3684  132.9907  -33.1636  133.5352  -34.0004  133.1668  -34.8288  132.7897
  4.300  -72.7098   58.9990  -72.4507   57.9298  -72.5325   58.2825  -72.6660   58.8547  -72.5780   58.4601  -72.4887   58.0712
  4.400  -54.5413   26.3616  -54.1940   26.0279  -54.3038   26.1458  -54.4877   26.3153  -54.3627   26.1961  -54.2435   26.0850
  4.500  -39.0356   15.7589  -38.8181   15.6649  -38.9065   15.7117  -38.9972   15.7434  -38.9220   15.7236  -38.8843   15.6787
  4.600  -27.2612   12.7131  -27.2097   12.6363  -27.2458   12.6366  -27.2369   12.7180  -27.2834   12.6933  -27.2042   12.6136
  4.700  -17.2082   15.3423  -17.0740   15.0431  -17.0854   15.0769  -17.2723   15.3459  -17.1586   15.0496  -17.0506   15.0930
  4.800  -13.5420   27.6633  -12.6783   28.3882  -12.7895   28.4413  -13.1038   27.4372  -12.6801   28.3454  -12.8547   28.4731
  4.900  -33.0494   32.8080  -33.8940   31.6244  -33.7567   31.5262  -33.5074   32.9302  -33.9848   31.7043  -33.6037   31.4725
  5.000  -36.7336   14.8639  -36.2409   15.0616  -36.3142   15.0965  -36.6789   14.7026  -36.2399   15.0375  -36.3586   15.1018
  5.100  -30.4373    7.5239  -30.4318    7.6488  -30.4487    7.6392  -30.3299    7.5121  -30.4486    7.6555  -30.4434    7.6258
  5.200  -25.4177    4.8204  -25.4343    4.8506  -25.4445    4.8486  -25.3605    4.9116  -25.4525    4.8533  -25.4373    4.8440
  5.300  -21.6150    3.6465  -21.6295    3.6457  -21.6392    3.6453  -21.6737    3.7049  -21.6466    3.6467  -21.6337    3.6433
  5.400  -18.4825    3.2394  -18.4999    3.2085  -18.5096    3.2080  -18.5548    3.2220  -18.5166    3.2079  -18.5053    3.2069
  5.500  -15.6959    3.6933  -15.6759    3.5783  -15.6861    3.5768  -15.7291    3.5663  -15.6933    3.5749  -15.6827    3.5765
  5.600  -14.0276    5.7984  -13.6857    5.8537  -13.6970    5.8490  -13.7174    5.7994  -13.7028    5.8426  -13.6959    5.8500
  5.700  -16.7085    7.2054  -16.9469    7.3388  -16.9513    7.3267  -16.9134    7.3290  -16.9495    7.3221  -16.9520    7.3221
  5.800  -17.1227    3.6774  -17.1424    3.6246  -17.1404    3.6192  -17.1434    3.6308  -17.1397    3.6181  -17.1369    3.6164
  5.900  -15.2988    2.0939  -15.2891    2.0803  -15.2881    2.0783  -15.2940    2.0816  -15.2880    2.0778  -15.2850    2.0771
  6.000  -13.7523    1.4813  -13.7428    1.4778  -13.7426    1.4769  -13.7478    1.4781  -13.7428    1.4767  -13.7401    1.4763
  6.100  -12.5053    1.1792  -12.4964    1.1788  -12.4966    1.1784  -12.5014    1.1787  -12.4970    1.1782  -12.4946    1.1780
  6.200  -11.4534    1.0102  -11.4440    1.0117  -11.4445    1.0116  -11.4491    1.0112  -11.4450    1.0114  -11.4428    1.0113
  6.300  -10.5255    0.9302  -10.5148    0.9356  -10.5153    0.9357  -10.5203    0.9338  -10.5160    0.9354  -10.5139    0.9355
  6.400   -9.6894    0.9814   -9.6808    0.9991   -9.6815    0.9995   -9.6852    0.9930   -9.6820    0.9988   -9.6804    0.9997
  6.500   -9.1908    1.2490   -9.2232    1.2639   -9.2249    1.2642   -9.2126    1.2601   -9.2238    1.2637   -9.2250    1.2637
  6.600   -8.9935    0.9736   -8.9946    0.9511   -8.9953    0.9505   -8.9965    0.9600   -8.9956    0.9515   -8.9941    0.9493
  6.700   -8.3869    0.6956   -8.3783    0.6882   -8.3788    0.6881   -8.3833    0.6912   -8.3794    0.6884   -8.3774    0.6876
  6.800   -7.7929    0.5840   -7.7856    0.5816   -7.7861    0.5816   -7.7899    0.5827   -7.7866    0.5818   -7.7849    0.5814
  6.900   -7.2528    0.5299   -7.2463    0.5294   -7.2467    0.5295   -7.2501    0.5297   -7.2472    0.5295   -7.2457    0.5294
  7.000   -6.7477    0.5076   -6.7412    0.5086   -6.7415    0.5088   -6.7449    0.5083   -6.7419    0.5088   -6.7405    0.5088
  7.100   -6.2589    0.5255   -6.2517    0.5300   -6.2518    0.5304   -6.2555    0.5282   -6.2522    0.5302   -6.2508    0.5306
  7.200   -5.7885    0.6484   -5.7851    0.6639   -5.7852    0.6649   -5.7870    0.6573   -5.7853    0.6642   -5.7845    0.6660
  7.300   -5.6150    0.9343   -5.6491    0.9363   -5.6507    0.9375   -5.6347    0.9366   -5.6490    0.9379   -5.6524    0.9380
  7.400   -5.5871    0.6837   -5.5827    0.6605   -5.5838    0.6605   -5.5856    0.6708   -5.5845    0.6620   -5.5839    0.6596
  7.500   -5.1794    0.4849   -5.1687    0.4775   -5.1695    0.4776   -5.1740    0.4809   -5.1705    0.4781   -5.1693    0.4772
  7.600   -4.7626    0.4226   -4.7535    0.4203   -4.7542    0.4204   -4.7579    0.4215   -4.7550    0.4206   -4.7541    0.4203
  7.700   -4.3621    0.4095   -4.3537    0.4094   -4.3543    0.4095   -4.3577    0.4096   -4.3550    0.4096   -4.3543    0.4095
  7.800   -3.9585    0.4297   -3.9496    0.4319   -3.9500    0.4320   -3.9536    0.4310   -3.9508    0.4319   -3.9501    0.4320
  7.900   -3.5279    0.5006   -3.5171    0.5080   -3.5175    0.5082   -3.5218    0.5047   -3.5184    0.5077   -3.5176    0.5084
  8.000   -3.0517    0.7065   -3.0424    0.7315   -3.0427    0.7321   -3.0459    0.7199   -3.0434    0.7303   -3.0431    0.7332
  8.100   -2.7650    1.3003   -2.8264    1.3468   -2.8278    1.3477   -2.7952    1.3269   -2.8231    1.3449   -2.8324    1.3494
  8.200   -3.3140    1.3518   -3.3324    1.2567   -3.3330    1.2556   -3.3254    1.3017   -3.3326    1.2623   -3.3346    1.2501
  8.300   -2.9561    0.8550   -2.9067    0.8227   -2.9064    0.8225   -2.9288    0.8379   -2.9101    0.8246   -2.9053    0.8202
  8.400   -2.2986    0.8107   -2.2476    0.8146   -2.2471    0.8149   -2.2696    0.8137   -2.2508    0.8145   -2.2466    0.8140
  8.500   -1.5380    1.0866   -1.4848    1.1330   -1.4840    1.1341   -1.5067    1.1133   -1.4879    1.1304   -1.4843    1.1338
  8.600   -0.7405    2.0138   -0.7685    2.1718   -0.7689    2.1751   -0.7498    2.1045   -0.7652    2.1631   -0.7716    2.1753
  8.700   -1.4165    3.5083   -1.6814    3.3232   -1.6849    3.3222   -1.5752    3.4198   -1.6679    3.3396   -1.6888    3.3134
  8.800   -1.5622    3.0713   -1.3850    2.9277   -1.3836    2.9279   -1.4643    2.9894   -1.3975    2.9376   -1.3790    2.9222
  8.900   -0.7303    5.0640   -0.5887    5.1939   -0.5900    5.1994   -0.6525    5.1451   -0.6007    5.1901   -0.5846    5.1962
  9.000   -5.2139    7.0387   -5.3239    7.0765   -5.3316    7.0728   -5.2888    7.0566   -5.3249    7.0693   -5.3261    7.0756
  9.100   -6.7303    3.0959   -6.7385    3.0736   -6.7382    3.0703   -6.7359    3.0789   -6.7376    3.0712   -6.7374    3.0720
  9.200   -5.6234    1.4557   -5.6202    1.4501   -5.6197    1.4490   -5.6218    1.4512   -5.6199    1.4492   -5.6192    1.4495
  9.300   -4.7154    0.8894   -4.7123    0.8879   -4.7122    0.8875   -4.7141    0.8881   -4.7124    0.8875   -4.7116    0.8876
  9.400   -4.0310    0.6631   -4.0281    0.6629   -4.0282    0.6626   -4.0300    0.6628   -4.0285    0.6626   -4.0277    0.6626
  9.500   -3.4574    0.5876   -3.4543    0.5880   -3.4546    0.5879   -3.4563    0.5879   -3.4549    0.5878   -3.4542    0.5877
  9.600   -2.9096    0.6316   -2.9060    0.6328   -2.9064    0.6326   -2.9081    0.6324   -2.9068    0.6324   -2.9061    0.6323
  9.700   -2.3187    0.8852   -2.3143    0.8887   -2.3149    0.8883   -2.3167    0.8875   -2.3155    0.8879   -2.3149    0.8876
  9.800   -1.8360    1.7557   -1.8345    1.7658   -1.8352    1.7649   -1.8359    1.7625   -1.8355    1.7637   -1.8350    1.7631
  9.900   -3.0904    2.6906   -3.1021    2.6899   -3.1017    2.6883   -3.0992    2.6905   -3.1005    2.6881   -3.0993    2.6870
 10.000   -3.4881    1.5066   -3.4877    1.5030   -3.4867    1.5024   -3.4893    1.5042   -3.4866    1.5027   -3.4847    1.5024
