# Macroscopic dielectric function obtained with the BS equation.
#  RPA L0 with KS energies and KS wavefunctions     LOCAL FIELD EFFECTS INCLUDED
# RESONANT-ONLY calculation
# Coulomb term constructed with full W(G1,G2)
# Scissor operator energy =  0.8000 [eV]
# Tolerance =  0.0200 0.0200
# npweps  = 51
# npwwfn  = 137
# nbands  = 8
# loband  = 2
# nkibz   = 2
# nkbz    = 32
# Lorentzian broadening =  0.1000 [eV]
# List of q-points for the optical limit:
# q =  0.938821, 0.000000, 0.000000, [Reduced coords] 
# q =  0.000000, 0.938821, 0.000000, [Reduced coords] 
# q =  0.000000, 0.000000, 0.938821, [Reduced coords] 
# q =  0.000000, 0.813043, 0.813043, [Reduced coords] 
# q =  0.813043, 0.000000, 0.813043, [Reduced coords] 
# q =  0.813043, 0.813043, 0.000000, [Reduced coords] 
# omega [eV]    RE(eps(q=1)) IM(eps(q=1) RE(eps(q=2) ) ... 
  0.000   21.7278    0.0000   21.7319    0.0000   21.7305    0.0000   21.7275    0.0000   21.7298    0.0000   21.7321    0.0000
  0.100   21.7432    0.0309   21.7473    0.0310   21.7459    0.0310   21.7429    0.0309   21.7452    0.0309   21.7476    0.0310
  0.200   21.7896    0.0622   21.7937    0.0622   21.7923    0.0622   21.7893    0.0622   21.7916    0.0622   21.7940    0.0622
  0.300   21.8674    0.0940   21.8715    0.0941   21.8701    0.0941   21.8671    0.0940   21.8694    0.0941   21.8718    0.0941
  0.400   21.9773    0.1268   21.9815    0.1269   21.9801    0.1269   21.9771    0.1268   21.9794    0.1268   21.9818    0.1269
  0.500   22.1205    0.1609   22.1248    0.1609   22.1234    0.1609   22.1203    0.1609   22.1227    0.1609   22.1251    0.1609
  0.600   22.2985    0.1966   22.3029    0.1967   22.3014    0.1966   22.2982    0.1966   22.3006    0.1966   22.3031    0.1967
  0.700   22.5130    0.2344   22.5175    0.2345   22.5160    0.2345   22.5127    0.2344   22.5152    0.2344   22.5178    0.2345
  0.800   22.7664    0.2747   22.7710    0.2749   22.7694    0.2748   22.7661    0.2747   22.7686    0.2748   22.7713    0.2749
  0.900   23.0614    0.3183   23.0662    0.3184   23.0646    0.3184   23.0612    0.3183   23.0638    0.3183   23.0665    0.3184
  1.000   23.4016    0.3656   23.4066    0.3658   23.4049    0.3657   23.4013    0.3656   23.4040    0.3657   23.4068    0.3658
  1.100   23.7910    0.4175   23.7962    0.4177   23.7945    0.4177   23.7908    0.4175   23.7936    0.4176   23.7965    0.4177
  1.200   24.2347    0.4750   24.2401    0.4753   24.2383    0.4752   24.2344    0.4750   24.2374    0.4751   24.2404    0.4753
  1.300   24.7387    0.5393   24.7444    0.5396   24.7425    0.5395   24.7385    0.5393   24.7416    0.5394   24.7447    0.5396
  1.400   25.3105    0.6118   25.3165    0.6121   25.3145    0.6120   25.3102    0.6118   25.3134    0.6120   25.3168    0.6121
  1.500   25.9589    0.6944   25.9653    0.6948   25.9631    0.6947   25.9586    0.6944   25.9620    0.6946   25.9656    0.6948
  1.600   26.6950    0.7895   26.7018    0.7900   26.6996    0.7898   26.6947    0.7895   26.6984    0.7898   26.7022    0.7900
  1.700   27.5326    0.9003   27.5399    0.9008   27.5375    0.9006   27.5323    0.9003   27.5362    0.9005   27.5403    0.9008
  1.800   28.4888    1.0308   28.4967    1.0314   28.4941    1.0312   28.4885    1.0308   28.4928    1.0311   28.4971    1.0314
  1.900   29.5855    1.1865   29.5941    1.1873   29.5912    1.1870   29.5852    1.1865   29.5897    1.1869   29.5944    1.1873
  2.000   30.8506    1.3752   30.8599    1.3761   30.8568    1.3758   30.8503    1.3752   30.8552    1.3756   30.8603    1.3761
  2.100   32.3208    1.6075   32.3311    1.6085   32.3276    1.6082   32.3205    1.6075   32.3259    1.6080   32.3314    1.6085
  2.200   34.0450    1.8990   34.0564    1.9002   34.0526    1.8998   34.0447    1.8990   34.0507    1.8996   34.0568    1.9002
  2.300   36.0899    2.2728   36.1027    2.2743   36.0984    2.2738   36.0896    2.2728   36.0962    2.2735   36.1031    2.2743
  2.400   38.5487    2.7647   38.5632    2.7666   38.5584    2.7660   38.5484    2.7647   38.5559    2.7657   38.5636    2.7667
  2.500   41.5562    3.4326   41.5728    3.4351   41.5672    3.4342   41.5558    3.4326   41.5644    3.4338   41.5732    3.4351
  2.600   45.3137    4.3748   45.3330    4.3780   45.3266    4.3769   45.3133    4.3748   45.3233    4.3764   45.3334    4.3780
  2.700   50.1359    5.7698   50.1588    5.7742   50.1511    5.7727   50.1355    5.7698   50.1473    5.7720   50.1592    5.7742
  2.800   56.5396    7.9687   56.5674    7.9750   56.5581    7.9729   56.5391    7.9687   56.5534    7.9719   56.5679    7.9751
  2.900   65.4216   11.7391   65.4565   11.7487   65.4448   11.7455   65.4212   11.7390   65.4390   11.7439   65.4570   11.7488
  3.000   78.4101   19.0082   78.4555   19.0248   78.4403   19.0192   78.4095   19.0079   78.4328   19.0165   78.4561   19.0249
  3.100   98.2637   35.5979   98.3253   35.6321   98.3046   35.6205   98.2629   35.5974   98.2945   35.6151   98.3260   35.6323
  3.200  124.1224   82.8593  124.1968   82.9482  124.1718   82.9179  124.1214   82.8577  124.1594   82.9041  124.1978   82.9488
  3.300   74.4739  199.9108   74.4203  200.0717   74.4395  200.0173   74.4751  199.9072   74.4455  199.9914   74.4220  200.0744
  3.400  -77.9614  139.5315  -78.0186  139.5369  -77.9992  139.5362  -77.9577  139.5304  -77.9900  139.5327  -78.0220  139.5406
  3.500  -66.6257   55.0666  -66.6347   55.0772  -66.6320   55.0740  -66.6219   55.0667  -66.6297   55.0714  -66.6393   55.0780
  3.600  -40.9035   27.7936  -40.8951   27.8103  -40.8981   27.8048  -40.8991   27.7946  -40.8990   27.8017  -40.9002   27.8096
  3.700  -22.4168   17.9154  -22.3897   17.9392  -22.3988   17.9313  -22.4109   17.9174  -22.4030   17.9271  -22.3959   17.9373
  3.800   -8.1590   14.3261   -8.1058   14.3644   -8.1236   14.3517   -8.1508   14.3301   -8.1323   14.3452   -8.1144   14.3605
  3.900    4.7140   14.2623    4.8089   14.3333    4.7772   14.3096    4.7267   14.2704    4.7615   14.2977    4.7959   14.3252
  4.000   18.5969   18.0786   18.7624   18.2347   18.7071   18.1825   18.6175   18.0972   18.6796   18.1563   18.7414   18.2159
  4.100   35.9773   30.2810   36.2399   30.7070   36.1523   30.5644   36.0089   30.3333   36.1085   30.4930   36.2079   30.6540
  4.200   52.6539   69.2766   52.5409   70.6265   52.5808   70.1752   52.6357   69.4453   52.6007   69.9489   52.5612   70.4562
  4.300  -10.3476  135.3037  -13.2140  135.0531  -12.2645  135.1429  -10.7251  135.2597  -11.7853  135.1903  -12.8424  135.1039
  4.400  -74.2670   69.0691  -74.1360   67.5551  -74.1705   68.0566  -74.2388   68.8562  -74.2003   68.3042  -74.1563   67.7650
  4.500  -58.4736   29.2990  -58.0436   28.8415  -58.1930   29.0055  -58.4027   29.2312  -58.2480   29.0730  -58.1220   28.9144
  4.600  -42.4556   16.4812  -42.1996   16.3085  -42.2932   16.3627  -42.4032   16.4609  -42.3402   16.4137  -42.2464   16.3269
  4.700  -30.6036   12.2828  -30.4415   12.1644  -30.5021   12.1925  -30.5752   12.2945  -30.5516   12.2082  -30.4722   12.1754
  4.800  -20.8022   13.1295  -20.6051   12.9460  -20.6506   12.9674  -20.9114   13.0745  -20.6885   12.9515  -20.6304   12.9568
  4.900  -14.7403   21.5306  -14.0865   22.0696  -14.1554   22.0839  -14.0364   21.4381  -14.0961   22.0472  -14.1344   22.0763
  5.000  -27.0679   31.9397  -27.8920   30.5955  -27.8389   30.5667  -28.2702   31.9248  -28.0499   30.6502  -27.8415   30.5770
  5.100  -36.1778   16.4077  -35.6925   16.8081  -35.7329   16.8131  -35.5391   16.2435  -35.6792   16.7957  -35.7273   16.8041
  5.200  -30.5497    7.9288  -30.6322    8.0740  -30.6481    8.0710  -30.5908    8.1680  -30.6529    8.0822  -30.6418    8.0672
  5.300  -25.5701    4.9774  -25.6368    4.9314  -25.6499    4.9312  -25.6773    4.9631  -25.6584    4.9345  -25.6455    4.9290
  5.400  -21.9030    3.6659  -21.8527    3.6036  -21.8651    3.6036  -21.8910    3.6136  -21.8730    3.6047  -21.8624    3.6020
  5.500  -18.8600    3.0661  -18.7934    3.0511  -18.8058    3.0506  -18.8282    3.0534  -18.8133    3.0505  -18.8045    3.0490
  5.600  -16.1400    3.1278  -16.0733    3.1370  -16.0862    3.1352  -16.1075    3.1326  -16.0941    3.1338  -16.0865    3.1332
  5.700  -13.7312    4.4843  -13.6677    4.5322  -13.6818    4.5268  -13.7000    4.5123  -13.6899    4.5220  -13.6841    4.5234
  5.800  -14.8693    7.5525  -14.8889    7.6228  -14.8987    7.6077  -14.8857    7.5941  -14.9000    7.5988  -14.9012    7.5979
  5.900  -17.2258    4.5590  -17.2404    4.5656  -17.2373    4.5557  -17.2392    4.5636  -17.2356    4.5526  -17.2308    4.5478
  6.000  -15.5835    2.3662  -15.5862    2.3697  -15.5836    2.3662  -15.5895    2.3688  -15.5828    2.3650  -15.5776    2.3631
  6.100  -13.9734    1.5761  -13.9729    1.5784  -13.9717    1.5769  -13.9770    1.5779  -13.9715    1.5763  -13.9671    1.5753
  6.200  -12.6883    1.2134  -12.6861    1.2150  -12.6858    1.2142  -12.6906    1.2147  -12.6859    1.2139  -12.6822    1.2133
  6.300  -11.6229    1.0136  -11.6195    1.0150  -11.6195    1.0146  -11.6240    1.0147  -11.6199    1.0144  -11.6167    1.0140
  6.400  -10.6992    0.9018  -10.6946    0.9040  -10.6949    0.9039  -10.6994    0.9033  -10.6954    0.9036  -10.6927    0.9033
  6.500   -9.8696    0.8790   -9.8644    0.8847   -9.8648    0.8847   -9.8691    0.8822   -9.8654    0.8841   -9.8630    0.8842
  6.600   -9.1983    1.0340   -9.2041    1.0470   -9.2049    1.0473   -9.2028    1.0411   -9.2044    1.0461   -9.2034    1.0466
  6.700   -8.9665    1.0039   -8.9739    0.9915   -8.9748    0.9911   -8.9723    0.9986   -8.9743    0.9924   -8.9731    0.9904
  6.800   -8.4428    0.7072   -8.4375    0.7014   -8.4380    0.7013   -8.4421    0.7047   -8.4387    0.7018   -8.4365    0.7009
  6.900   -7.8585    0.5823   -7.8535    0.5804   -7.8540    0.5804   -7.8577    0.5817   -7.8546    0.5806   -7.8527    0.5802
  7.000   -7.3238    0.5236   -7.3194    0.5230   -7.3199    0.5231   -7.3230    0.5236   -7.3204    0.5232   -7.3188    0.5229
  7.100   -6.8258    0.4957   -6.8217    0.4958   -6.8220    0.4960   -6.8250    0.4959   -6.8225    0.4960   -6.8211    0.4958
  7.200   -6.3469    0.4984   -6.3426    0.4997   -6.3428    0.4999   -6.3458    0.4991   -6.3433    0.4998   -6.3420    0.4999
  7.300   -5.8736    0.5674   -5.8695    0.5722   -5.8696    0.5729   -5.8725    0.5696   -5.8700    0.5724   -5.8689    0.5730
  7.400   -5.5072    0.8250   -5.5157    0.8364   -5.5166    0.8380   -5.5111    0.8302   -5.5156    0.8370   -5.5164    0.8384
  7.500   -5.6039    0.8526   -5.6110    0.8343   -5.6127    0.8343   -5.6076    0.8452   -5.6122    0.8364   -5.6128    0.8339
  7.600   -5.3018    0.5465   -5.2936    0.5384   -5.2944    0.5383   -5.2987    0.5432   -5.2955    0.5392   -5.2943    0.5381
  7.700   -4.8795    0.4407   -4.8719    0.4382   -4.8726    0.4382   -4.8764    0.4398   -4.8736    0.4385   -4.8726    0.4380
  7.800   -4.4748    0.4123   -4.4680    0.4118   -4.4686    0.4118   -4.4719    0.4122   -4.4695    0.4119   -4.4688    0.4117
  7.900   -4.0735    0.4227   -4.0666    0.4237   -4.0671    0.4238   -4.0704    0.4233   -4.0680    0.4237   -4.0674    0.4236
  8.000   -3.6515    0.4795   -3.6436    0.4834   -3.6440    0.4835   -3.6478    0.4812   -3.6450    0.4831   -3.6445    0.4834
  8.100   -3.1848    0.6463   -3.1764    0.6595   -3.1768    0.6599   -3.1806    0.6518   -3.1778    0.6584   -3.1775    0.6600
  8.200   -2.7994    1.1542   -2.8207    1.1905   -2.8218    1.1914   -2.8059    1.1691   -2.8192    1.1874   -2.8238    1.1920
  8.300   -3.3150    1.4877   -3.3550    1.4289   -3.3562    1.4277   -3.3307    1.4665   -3.3522    1.4344   -3.3584    1.4247
  8.400   -3.1575    0.9021   -3.1264    0.8716   -3.1260    0.8711   -3.1444    0.8908   -3.1296    0.8744   -3.1263    0.8694
  8.500   -2.5358    0.7698   -2.5022    0.7671   -2.5016    0.7673   -2.5210    0.7696   -2.5053    0.7676   -2.5024    0.7663
  8.600   -1.8260    0.9417   -1.7908    0.9616   -1.7899    0.9627   -1.8096    0.9509   -1.7938    0.9605   -1.7916    0.9616
  8.700   -1.0193    1.5856   -1.0043    1.6639   -1.0039    1.6673   -1.0091    1.6194   -1.0052    1.6586   -1.0070    1.6655
  8.800   -1.0527    3.0981   -1.2473    3.1038   -1.2542    3.1047   -1.1291    3.1125   -1.2333    3.1063   -1.2586    3.0980
  8.900   -1.6997    2.9190   -1.6273    2.7697   -1.6253    2.7667   -1.6734    2.8610   -1.6334    2.7816   -1.6230    2.7598
  9.000   -0.5593    3.9930   -0.4389    4.0200   -0.4364    4.0247   -0.5105    4.0104   -0.4486    4.0224   -0.4338    4.0186
  9.100   -2.9744    7.6413   -3.0134    7.7336   -3.0245    7.7370   -3.0018    7.6852   -3.0222    7.7279   -3.0152    7.7328
  9.200   -7.0298    4.3886   -7.0484    4.3748   -7.0496    4.3688   -7.0416    4.3795   -7.0478    4.3691   -7.0460    4.3709
  9.300   -6.1315    1.8742   -6.1314    1.8702   -6.1304    1.8682   -6.1331    1.8717   -6.1302    1.8683   -6.1286    1.8687
  9.400   -5.1075    1.0442   -5.1063    1.0435   -5.1058    1.0428   -5.1086    1.0438   -5.1058    1.0427   -5.1041    1.0427
  9.500   -4.3542    0.7227   -4.3528    0.7227   -4.3526    0.7224   -4.3551    0.7227   -4.3527    0.7223   -4.3511    0.7222
  9.600   -3.7546    0.5956   -3.7530    0.5959   -3.7530    0.5957   -3.7553    0.5958   -3.7531    0.5956   -3.7516    0.5956
  9.700   -3.2148    0.5868   -3.2129    0.5874   -3.2130    0.5873   -3.2153    0.5871   -3.2132    0.5872   -3.2118    0.5871
  9.800   -2.6607    0.7305   -2.6583    0.7320   -2.6585    0.7319   -2.6609    0.7313   -2.6588    0.7317   -2.6574    0.7317
  9.900   -2.0939    1.2731   -2.0915    1.2773   -2.0919    1.2772   -2.0940    1.2751   -2.0922    1.2768   -2.0909    1.2769
 10.000   -2.5470    2.5097   -2.5530    2.5144   -2.5538    2.5135   -2.5509    2.5119   -2.5534    2.5129   -2.5526    2.5130
