# Macroscopic dielectric function obtained with the BS equation.
#  RPA L0 with KS energies and KS wavefunctions     LOCAL FIELD EFFECTS INCLUDED
# RESONANT-ONLY calculation
# Coulomb term constructed with full W(G1,G2)
# Scissor operator energy =  0.8000 [eV]
# Tolerance =  0.0200 0.0200
# npweps  = 51
# npwwfn  = 137
# nbands  = 8
# loband  = 2
# nkibz   = 2
# nkbz    = 32
# Lorentzian broadening =  0.1000 [eV]
# List of q-points for the optical limit:
# q =  0.938821, 0.000000, 0.000000, [Reduced coords] 
# q =  0.000000, 0.938821, 0.000000, [Reduced coords] 
# q =  0.000000, 0.000000, 0.938821, [Reduced coords] 
# q =  0.000000, 0.813043, 0.813043, [Reduced coords] 
# q =  0.813043, 0.000000, 0.813043, [Reduced coords] 
# q =  0.813043, 0.813043, 0.000000, [Reduced coords] 
# omega [eV]    RE(eps(q=1)) IM(eps(q=1) RE(eps(q=2) ) ... 
  0.000   22.3048    0.0000   22.3086    0.0000   22.3073    0.0000   22.3051    0.0000   22.3067    0.0000   22.3083    0.0000
  0.100   22.3217    0.0339   22.3254    0.0339   22.3242    0.0339   22.3219    0.0339   22.3235    0.0339   22.3252    0.0339
  0.200   22.3725    0.0681   22.3762    0.0681   22.3750    0.0681   22.3727    0.0681   22.3743    0.0681   22.3760    0.0681
  0.300   22.4577    0.1030   22.4615    0.1031   22.4602    0.1031   22.4579    0.1030   22.4595    0.1031   22.4612    0.1031
  0.400   22.5782    0.1391   22.5820    0.1391   22.5807    0.1391   22.5784    0.1391   22.5801    0.1391   22.5818    0.1391
  0.500   22.7353    0.1766   22.7392    0.1767   22.7379    0.1767   22.7356    0.1766   22.7372    0.1767   22.7390    0.1767
  0.600   22.9308    0.2161   22.9348    0.2162   22.9334    0.2162   22.9310    0.2161   22.9327    0.2162   22.9345    0.2162
  0.700   23.1667    0.2581   23.1709    0.2582   23.1695    0.2582   23.1670    0.2581   23.1688    0.2582   23.1706    0.2582
  0.800   23.4459    0.3032   23.4502    0.3033   23.4488    0.3033   23.4462    0.3032   23.4480    0.3032   23.4499    0.3033
  0.900   23.7718    0.3520   23.7762    0.3521   23.7747    0.3521   23.7721    0.3520   23.7739    0.3521   23.7759    0.3521
  1.000   24.1483    0.4054   24.1529    0.4056   24.1514    0.4055   24.1487    0.4054   24.1506    0.4055   24.1526    0.4056
  1.100   24.5807    0.4644   24.5855    0.4646   24.5839    0.4646   24.5811    0.4645   24.5830    0.4645   24.5851    0.4646
  1.200   25.0749    0.5303   25.0799    0.5305   25.0782    0.5305   25.0753    0.5303   25.0774    0.5304   25.0795    0.5305
  1.300   25.6384    0.6045   25.6437    0.6048   25.6419    0.6047   25.6388    0.6045   25.6410    0.6047   25.6433    0.6048
  1.400   26.2804    0.6890   26.2860    0.6894   26.2841    0.6893   26.2809    0.6891   26.2832    0.6892   26.2856    0.6893
  1.500   27.0122    0.7864   27.0181    0.7868   27.0161    0.7866   27.0127    0.7864   27.0151    0.7866   27.0176    0.7867
  1.600   27.8477    0.8998   27.8541    0.9002   27.8519    0.9001   27.8482    0.8998   27.8508    0.9000   27.8535    0.9002
  1.700   28.8047    1.0335   28.8116    1.0340   28.8093    1.0338   28.8053    1.0336   28.8081    1.0338   28.8110    1.0340
  1.800   29.9057    1.1934   29.9131    1.1940   29.9106    1.1938   29.9064    1.1935   29.9094    1.1937   29.9125    1.1940
  1.900   31.1797    1.3876   31.1879    1.3883   31.1851    1.3881   31.1805    1.3877   31.1838    1.3879   31.1871    1.3882
  2.000   32.6651    1.6274   32.6740    1.6283   32.6710    1.6280   32.6659    1.6275   32.6695    1.6279   32.6731    1.6282
  2.100   34.4129    1.9295   34.4228    1.9306   34.4194    1.9303   34.4139    1.9297   34.4178    1.9301   34.4218    1.9305
  2.200   36.4935    2.3190   36.5045    2.3203   36.5008    2.3198   36.4947    2.3192   36.4990    2.3196   36.5034    2.3201
  2.300   39.0060    2.8348   39.0184    2.8364   39.0142    2.8358   39.0074    2.8350   39.0121    2.8356   39.0171    2.8361
  2.400   42.0945    3.5408   42.1087    3.5428   42.1039    3.5421   42.0961    3.5411   42.1016    3.5418   42.1071    3.5425
  2.500   45.9770    4.5473   45.9935    4.5500   45.9880    4.5491   45.9790    4.5477   45.9852    4.5486   45.9915    4.5495
  2.600   50.9981    6.0582   51.0177    6.0619   51.0111    6.0607   51.0007    6.0589   51.0078    6.0601   51.0151    6.0613
  2.700   57.7315    8.4849   57.7552    8.4902   57.7472    8.4884   57.7348    8.4859   57.7433    8.4875   57.7519    8.4891
  2.800   67.1867   12.7552   67.2162   12.7634   67.2062   12.7606   67.1911   12.7569   67.2014   12.7593   67.2118   12.7616
  2.900   81.2010   21.3028   81.2394   21.3173   81.2264   21.3123   81.2072   21.3062   81.2201   21.3100   81.2330   21.3137
  3.000  102.5874   41.8909  102.6391   41.9218  102.6215   41.9110  102.5963   41.8991  102.6131   41.9063  102.6299   41.9130
  3.100  124.3096  103.3433  124.3632  103.4255  124.3453  103.3966  124.3155  103.3672  124.3361  103.3844  124.3576  103.3997
  3.200   23.9575  206.7839   23.8967  206.8724   23.9199  206.8428   23.9213  206.7957   23.9265  206.8276   23.9371  206.8611
  3.300  -78.1684  104.9840  -78.1914  104.9935  -78.1837  104.9918  -78.1732  104.9715  -78.1796  104.9882  -78.1869  105.0083
  3.400  -55.7929   43.5135  -55.7920   43.5263  -55.7926   43.5225  -55.7915   43.5105  -55.7922   43.5197  -55.7941   43.5300
  3.500  -32.7050   23.5759  -32.6894   23.5922  -32.6948   23.5870  -32.7031   23.5760  -32.6970   23.5840  -32.6918   23.5925
  3.600  -16.0829   16.1562  -16.0498   16.1794  -16.0609   16.1717  -16.0800   16.1578  -16.0662   16.1677  -16.0530   16.1779
  3.700   -2.7209   13.7132   -2.6623   13.7513   -2.6819   13.7386   -2.7158   13.7168   -2.6915   13.7322   -2.6676   13.7478
  3.800    9.9539   14.5194   10.0537   14.5919   10.0204   14.5677    9.9629   14.5270   10.0038   14.5556   10.0444   14.5844
  3.900   24.2930   19.6129   24.4626   19.7775   24.4060   19.7225   24.3093   19.6310   24.3777   19.6949   24.4461   19.7592
  4.000   42.6502   35.1265   42.8995   35.5937   42.8165   35.4374   42.6743   35.1798   42.7749   35.3591   42.8753   35.5397
  4.100   54.9076   84.4669   54.5131   85.8675   54.6477   85.4001   54.8515   84.6294   54.7143   85.1657   54.5720   85.7041
  4.200  -32.8886  133.6821  -35.0966  132.6405  -34.3684  132.9906  -33.1635  133.5351  -34.0004  133.1667  -34.8288  132.7896
  4.300  -72.7098   58.9990  -72.4506   57.9298  -72.5324   58.2824  -72.6660   58.8547  -72.5779   58.4600  -72.4887   58.0712
  4.400  -54.5413   26.3616  -54.1939   26.0279  -54.3038   26.1458  -54.4877   26.3152  -54.3627   26.1961  -54.2435   26.0850
  4.500  -39.0356   15.7589  -38.8182   15.6650  -38.9066   15.7116  -38.9971   15.7434  -38.9220   15.7236  -38.8844   15.6785
  4.600  -27.2612   12.7131  -27.2095   12.6360  -27.2455   12.6364  -27.2369   12.7180  -27.2834   12.6929  -27.2040   12.6136
  4.700  -17.2083   15.3422  -17.0737   15.0434  -17.0852   15.0772  -17.2725   15.3457  -17.1580   15.0498  -17.0504   15.0932
  4.800  -13.5415   27.6627  -12.6795   28.3887  -12.7907   28.4415  -13.1020   27.4372  -12.6814   28.3462  -12.8558   28.4731
  4.900  -33.0497   32.8084  -33.8909   31.6227  -33.7534   31.5253  -33.5089   32.9299  -33.9817   31.7020  -33.6006   31.4723
  5.000  -36.7335   14.8638  -36.2420   15.0624  -36.3152   15.0970  -36.6782   14.7021  -36.2412   15.0387  -36.3594   15.1020
  5.100  -30.4371    7.5239  -30.4317    7.6486  -30.4486    7.6390  -30.3291    7.5125  -30.4486    7.6553  -30.4433    7.6256
  5.200  -25.4175    4.8205  -25.4341    4.8506  -25.4443    4.8486  -25.3610    4.9126  -25.4523    4.8532  -25.4371    4.8440
  5.300  -21.6147    3.6466  -21.6293    3.6458  -21.6390    3.6454  -21.6737    3.7044  -21.6463    3.6467  -21.6334    3.6433
  5.400  -18.4822    3.2398  -18.4996    3.2086  -18.5093    3.2081  -18.5543    3.2220  -18.5163    3.2080  -18.5050    3.2070
  5.500  -15.6964    3.6943  -15.6755    3.5786  -15.6857    3.5771  -15.7284    3.5667  -15.6929    3.5752  -15.6823    3.5768
  5.600  -14.0258    5.7950  -13.6855    5.8548  -13.6968    5.8500  -13.7171    5.8007  -13.7026    5.8436  -13.6957    5.8510
  5.700  -16.7111    7.2088  -16.9478    7.3393  -16.9522    7.3272  -16.9145    7.3295  -16.9504    7.3225  -16.9529    7.3226
  5.800  -17.1235    3.6769  -17.1429    3.6247  -17.1409    3.6193  -17.1439    3.6308  -17.1402    3.6181  -17.1373    3.6165
  5.900  -15.2991    2.0938  -15.2895    2.0803  -15.2884    2.0783  -15.2943    2.0817  -15.2884    2.0778  -15.2854    2.0772
  6.000  -13.7526    1.4813  -13.7432    1.4778  -13.7429    1.4770  -13.7481    1.4781  -13.7432    1.4767  -13.7405    1.4763
  6.100  -12.5056    1.1792  -12.4967    1.1788  -12.4969    1.1784  -12.5017    1.1787  -12.4974    1.1782  -12.4949    1.1780
  6.200  -11.4537    1.0101  -11.4444    1.0117  -11.4448    1.0115  -11.4495    1.0111  -11.4454    1.0114  -11.4431    1.0112
  6.300  -10.5258    0.9302  -10.5152    0.9355  -10.5157    0.9356  -10.5207    0.9337  -10.5164    0.9353  -10.5143    0.9354
  6.400   -9.6899    0.9812   -9.6813    0.9988   -9.6819    0.9993   -9.6857    0.9928   -9.6825    0.9985   -9.6809    0.9994
  6.500   -9.1912    1.2484   -9.2235    1.2632   -9.2252    1.2635   -9.2129    1.2594   -9.2240    1.2630   -9.2253    1.2630
  6.600   -8.9933    0.9731   -8.9943    0.9507   -8.9950    0.9501   -8.9963    0.9595   -8.9953    0.9510   -8.9938    0.9489
  6.700   -8.3866    0.6954   -8.3781    0.6880   -8.3785    0.6879   -8.3831    0.6910   -8.3792    0.6882   -8.3772    0.6874
  6.800   -7.7928    0.5839   -7.7855    0.5815   -7.7859    0.5816   -7.7898    0.5826   -7.7865    0.5817   -7.7848    0.5813
  6.900   -7.2527    0.5299   -7.2462    0.5294   -7.2466    0.5295   -7.2500    0.5297   -7.2471    0.5295   -7.2456    0.5294
  7.000   -6.7476    0.5075   -6.7411    0.5086   -6.7414    0.5088   -6.7449    0.5083   -6.7419    0.5088   -6.7404    0.5088
  7.100   -6.2588    0.5255   -6.2516    0.5300   -6.2517    0.5304   -6.2555    0.5282   -6.2522    0.5302   -6.2508    0.5306
  7.200   -5.7885    0.6485   -5.7851    0.6639   -5.7852    0.6650   -5.7870    0.6573   -5.7853    0.6643   -5.7845    0.6661
  7.300   -5.6153    0.9343   -5.6492    0.9362   -5.6509    0.9374   -5.6349    0.9365   -5.6491    0.9379   -5.6525    0.9379
  7.400   -5.5870    0.6834   -5.5827    0.6604   -5.5838    0.6604   -5.5855    0.6706   -5.5845    0.6618   -5.5838    0.6594
  7.500   -5.1793    0.4848   -5.1686    0.4774   -5.1694    0.4775   -5.1739    0.4808   -5.1704    0.4780   -5.1692    0.4772
  7.600   -4.7625    0.4226   -4.7535    0.4203   -4.7542    0.4204   -4.7579    0.4215   -4.7550    0.4206   -4.7540    0.4202
  7.700   -4.3620    0.4095   -4.3537    0.4094   -4.3542    0.4095   -4.3576    0.4096   -4.3550    0.4096   -4.3542    0.4095
  7.800   -3.9584    0.4297   -3.9495    0.4319   -3.9500    0.4320   -3.9536    0.4310   -3.9508    0.4319   -3.9501    0.4320
  7.900   -3.5278    0.5007   -3.5171    0.5080   -3.5174    0.5082   -3.5218    0.5048   -3.5183    0.5077   -3.5175    0.5085
  8.000   -3.0516    0.7067   -3.0423    0.7317   -3.0426    0.7322   -3.0459    0.7201   -3.0433    0.7304   -3.0430    0.7333
  8.100   -2.7655    1.3007   -2.8268    1.3471   -2.8282    1.3480   -2.7957    1.3272   -2.8235    1.3451   -2.8328    1.3497
  8.200   -3.3142    1.3509   -3.3324    1.2560   -3.3330    1.2549   -3.3255    1.3009   -3.3325    1.2616   -3.3346    1.2495
  8.300   -2.9556    0.8548   -2.9063    0.8226   -2.9059    0.8223   -2.9283    0.8377   -2.9096    0.8244   -2.9048    0.8201
  8.400   -2.2979    0.8109   -2.2471    0.8148   -2.2465    0.8151   -2.2690    0.8139   -2.2503    0.8147   -2.2460    0.8142
  8.500   -1.5373    1.0874   -1.4842    1.1339   -1.4834    1.1350   -1.5060    1.1141   -1.4872    1.1313   -1.4836    1.1346
  8.600   -0.7409    2.0167   -0.7694    2.1745   -0.7698    2.1777   -0.7504    2.1073   -0.7660    2.1658   -0.7725    2.1780
  8.700   -1.4223    3.5060   -1.6853    3.3202   -1.6888    3.3191   -1.5800    3.4169   -1.6719    3.3366   -1.6926    3.3104
  8.800   -1.5597    3.0683   -1.3831    2.9259   -1.3817    2.9261   -1.4621    2.9871   -1.3956    2.9357   -1.3772    2.9204
  8.900   -0.7284    5.0660   -0.5876    5.1954   -0.5889    5.2009   -0.6511    5.1468   -0.5996    5.1916   -0.5836    5.1977
  9.000   -5.2164    7.0381   -5.3257    7.0756   -5.3335    7.0719   -5.2909    7.0558   -5.3267    7.0684   -5.3279    7.0746
  9.100   -6.7299    3.0948   -6.7380    3.0726   -6.7378    3.0693   -6.7354    3.0779   -6.7371    3.0703   -6.7370    3.0711
  9.200   -5.6229    1.4553   -5.6197    1.4498   -5.6192    1.4487   -5.6213    1.4509   -5.6194    1.4489   -5.6187    1.4491
  9.300   -4.7150    0.8892   -4.7119    0.8878   -4.7118    0.8873   -4.7137    0.8880   -4.7120    0.8873   -4.7112    0.8874
  9.400   -4.0307    0.6630   -4.0278    0.6628   -4.0279    0.6626   -4.0297    0.6628   -4.0282    0.6625   -4.0274    0.6625
  9.500   -3.4571    0.5876   -3.4540    0.5880   -3.4543    0.5879   -3.4560    0.5879   -3.4547    0.5878   -3.4539    0.5877
  9.600   -2.9093    0.6316   -2.9056    0.6329   -2.9061    0.6327   -2.9078    0.6325   -2.9065    0.6325   -2.9058    0.6324
  9.700   -2.3184    0.8854   -2.3139    0.8889   -2.3146    0.8885   -2.3163    0.8877   -2.3151    0.8881   -2.3145    0.8878
  9.800   -1.8358    1.7563   -1.8343    1.7665   -1.8351    1.7655   -1.8357    1.7631   -1.8353    1.7644   -1.8348    1.7638
  9.900   -3.0912    2.6907   -3.1028    2.6900   -3.1024    2.6885   -3.0999    2.6906   -3.1012    2.6883   -3.1000    2.6872
 10.000   -3.4882    1.5064   -3.4879    1.5029   -3.4869    1.5023   -3.4894    1.5041   -3.4867    1.5025   -3.4848    1.5022
