# Macroscopic dielectric function obtained with the BS equation.
#  RPA L0 with KS energies and KS wavefunctions     LOCAL FIELD EFFECTS INCLUDED
# RESONANT-ONLY calculation
# Coulomb term constructed with full W(G1,G2)
# Scissor operator energy =  0.8000 [eV]
# nstates included in the diagonalization = 384
# npweps  = 51
# npwwfn  = 137
# nbands  = 8
# loband  = 2
# nkibz   = 2
# nkbz    = 32
# Lorentzian broadening =  0.1000 [eV]
# List of q-points for the optical limit:
# q =  0.938821, 0.000000, 0.000000, [Reduced coords] 
# q =  0.000000, 0.938821, 0.000000, [Reduced coords] 
# q =  0.000000, 0.000000, 0.938821, [Reduced coords] 
# q =  0.000000, 0.813043, 0.813043, [Reduced coords] 
# q =  0.813043, 0.000000, 0.813043, [Reduced coords] 
# q =  0.813043, 0.813043, 0.000000, [Reduced coords] 
# omega [eV]    RE(eps(q=1)) IM(eps(q=1) RE(eps(q=2) ) ... DOS   IDOS
  0.000   21.7278    0.0000   21.7319    0.0000   21.7305    0.0000   21.7275    0.0000   21.7298    0.0000   21.7322    0.0000    0.0000    0.0000
  0.100   21.7432    0.0309   21.7473    0.0310   21.7459    0.0310   21.7430    0.0309   21.7452    0.0309   21.7476    0.0310    0.0000    0.0000
  0.200   21.7896    0.0622   21.7937    0.0622   21.7923    0.0622   21.7893    0.0622   21.7916    0.0622   21.7940    0.0622    0.0000    0.0000
  0.300   21.8674    0.0940   21.8715    0.0941   21.8701    0.0941   21.8671    0.0940   21.8694    0.0941   21.8718    0.0941    0.0000    0.0000
  0.400   21.9773    0.1268   21.9815    0.1269   21.9801    0.1269   21.9771    0.1268   21.9794    0.1268   21.9818    0.1269    0.0000    0.0000
  0.500   22.1206    0.1609   22.1248    0.1609   22.1234    0.1609   22.1203    0.1609   22.1227    0.1609   22.1251    0.1609    0.0000    0.0000
  0.600   22.2985    0.1966   22.3029    0.1967   22.3014    0.1966   22.2982    0.1966   22.3007    0.1966   22.3032    0.1967    0.0000    0.0000
  0.700   22.5130    0.2344   22.5175    0.2345   22.5160    0.2345   22.5128    0.2344   22.5152    0.2344   22.5178    0.2345    0.0000    0.0000
  0.800   22.7664    0.2747   22.7710    0.2749   22.7695    0.2748   22.7661    0.2747   22.7687    0.2748   22.7713    0.2749    0.0000    0.0000
  0.900   23.0614    0.3183   23.0662    0.3184   23.0646    0.3184   23.0612    0.3183   23.0638    0.3183   23.0665    0.3184    0.0000    0.0000
  1.000   23.4016    0.3656   23.4066    0.3658   23.4049    0.3657   23.4013    0.3656   23.4041    0.3657   23.4069    0.3658    0.0000    0.0000
  1.100   23.7910    0.4175   23.7962    0.4177   23.7945    0.4177   23.7908    0.4175   23.7936    0.4176   23.7965    0.4177    0.0000    0.0000
  1.200   24.2347    0.4750   24.2402    0.4753   24.2383    0.4752   24.2345    0.4750   24.2374    0.4751   24.2404    0.4753    0.0000    0.0000
  1.300   24.7388    0.5393   24.7445    0.5396   24.7426    0.5395   24.7385    0.5393   24.7416    0.5394   24.7448    0.5396    0.0000    0.0000
  1.400   25.3105    0.6118   25.3165    0.6121   25.3145    0.6120   25.3102    0.6118   25.3135    0.6120   25.3168    0.6121    0.0000    0.0000
  1.500   25.9589    0.6944   25.9653    0.6948   25.9632    0.6947   25.9586    0.6944   25.9621    0.6946   25.9656    0.6948    0.0000    0.0000
  1.600   26.6950    0.7895   26.7019    0.7900   26.6996    0.7898   26.6948    0.7895   26.6984    0.7898   26.7022    0.7900    0.0000    0.0000
  1.700   27.5326    0.9003   27.5400    0.9008   27.5375    0.9006   27.5324    0.9003   27.5363    0.9005   27.5403    0.9008    0.0000    0.0000
  1.800   28.4889    1.0308   28.4968    1.0314   28.4941    1.0312   28.4886    1.0308   28.4928    1.0311   28.4971    1.0314    0.0000    0.0000
  1.900   29.5855    1.1865   29.5941    1.1873   29.5912    1.1870   29.5852    1.1865   29.5898    1.1869   29.5944    1.1873    0.0000    0.0000
  2.000   30.8506    1.3752   30.8600    1.3761   30.8568    1.3758   30.8503    1.3752   30.8552    1.3756   30.8603    1.3761    0.0000    0.0000
  2.100   32.3208    1.6075   32.3311    1.6085   32.3277    1.6082   32.3205    1.6075   32.3259    1.6080   32.3315    1.6085    0.0000    0.0000
  2.200   34.0450    1.8990   34.0565    1.9002   34.0526    1.8998   34.0447    1.8990   34.0507    1.8996   34.0568    1.9002    0.0000    0.0000
  2.300   36.0899    2.2728   36.1027    2.2743   36.0984    2.2738   36.0896    2.2728   36.0963    2.2735   36.1031    2.2743    0.0000    0.0000
  2.400   38.5488    2.7647   38.5633    2.7666   38.5584    2.7660   38.5484    2.7647   38.5560    2.7657   38.5636    2.7667    0.0000    0.0000
  2.500   41.5562    3.4326   41.5728    3.4351   41.5673    3.4342   41.5559    3.4326   41.5645    3.4338   41.5732    3.4351    0.0000    0.0000
  2.600   45.3137    4.3748   45.3330    4.3780   45.3266    4.3769   45.3133    4.3748   45.3233    4.3764   45.3335    4.3780    0.0000    0.0000
  2.700   50.1359    5.7698   50.1588    5.7742   50.1512    5.7727   50.1355    5.7698   50.1473    5.7720   50.1593    5.7742    0.0000    0.0000
  2.800   56.5396    7.9687   56.5674    7.9750   56.5581    7.9729   56.5392    7.9687   56.5535    7.9719   56.5679    7.9751    0.0000    0.0000
  2.900   65.4217   11.7391   65.4565   11.7487   65.4448   11.7455   65.4212   11.7390   65.4390   11.7439   65.4570   11.7488    0.0000    0.0000
  3.000   78.4102   19.0082   78.4556   19.0248   78.4403   19.0192   78.4095   19.0079   78.4328   19.0165   78.4561   19.0249    0.0110    0.0000
  3.100   98.2638   35.5979   98.3254   35.6321   98.3047   35.6205   98.2630   35.5974   98.2945   35.6151   98.3261   35.6323    2.8626    0.0106
  3.200  124.1224   82.8592  124.1968   82.9481  124.1719   82.9179  124.1214   82.8577  124.1595   82.9041  124.1979   82.9487  111.6006    0.4207
  3.300   74.4741  199.9108   74.4206  200.0716   74.4398  200.0173   74.4754  199.9072   74.4457  199.9914   74.4222  200.0744  860.1293    3.5816
  3.400  -77.9613  139.5317  -78.0186  139.5371  -77.9992  139.5364  -77.9577  139.5306  -77.9900  139.5329  -78.0220  139.5408 2013.9689   10.9828
  3.500  -66.6258   55.0667  -66.6348   55.0773  -66.6320   55.0741  -66.6219   55.0668  -66.6298   55.0714  -66.6394   55.0781 1231.0868   15.5070
  3.600  -40.9036   27.7936  -40.8951   27.8103  -40.8981   27.8049  -40.8991   27.7946  -40.8990   27.8017  -40.9002   27.8096  131.9245   15.9918
  3.700  -22.4168   17.9154  -22.3897   17.9392  -22.3988   17.9313  -22.4109   17.9174  -22.4030   17.9272  -22.3960   17.9373    2.1024   15.9995
  3.800   -8.1590   14.3262   -8.1058   14.3644   -8.1236   14.3517   -8.1508   14.3301   -8.1323   14.3452   -8.1144   14.3605    0.0047   15.9995
  3.900    4.7140   14.2624    4.8089   14.3333    4.7772   14.3096    4.7267   14.2704    4.7615   14.2977    4.7959   14.3253    0.0007   15.9995
  4.000   18.5969   18.0787   18.7624   18.2347   18.7071   18.1826   18.6176   18.0973   18.6796   18.1564   18.7414   18.2160    0.4448   16.0012
  4.100   35.9773   30.2811   36.2398   30.7072   36.1522   30.5646   36.0089   30.3335   36.1085   30.4932   36.2078   30.6542   37.8168   16.1401
  4.200   52.6532   69.2766   52.5389   70.6260   52.5785   70.1745   52.6345   69.4452   52.5989   69.9487   52.5588   70.4554  479.9579   17.9039
  4.300  -10.3442  135.3017  -13.1982  135.0485  -12.2452  135.1391  -10.7181  135.2562  -11.7720  135.1845  -12.8222  135.1003 1286.0920   22.6302
  4.400  -74.2670   69.0732  -74.1510   67.5713  -74.1926   68.0714  -74.2413   68.8637  -74.2102   68.3199  -74.1795   67.7802 2569.5502   32.0732
  4.500  -58.4780   29.3005  -58.0594   28.8180  -58.1992   28.9779  -58.4106   29.2317  -58.2685   29.0591  -58.1271   28.8859 1922.6453   39.1388
  4.600  -42.4611   16.4779  -42.1741   16.2939  -42.2698   16.3550  -42.4122   16.4519  -42.3176   16.3859  -42.2230   16.3197  229.9926   39.9840
  4.700  -30.6079   12.2676  -30.4091   12.1835  -30.4754   12.2114  -30.5713   12.2566  -30.5085   12.2255  -30.4457   12.1943    7.7093   40.0123
  4.800  -20.7515   13.0781  -20.6027   13.0387  -20.6524   13.0517  -20.7220   13.0759  -20.6771   13.0583  -20.6322   13.0409  178.5083   40.6683
  4.900  -14.6305   22.0129  -14.5152   22.0062  -14.5537   22.0081  -14.6140   22.0174  -14.5728   22.0094  -14.5320   22.0015 1758.0440   47.1290
  5.000  -26.9662   30.9355  -26.8926   30.9445  -26.9169   30.9414  -26.9410   30.9315  -26.9290   30.9400  -26.9178   30.9484 4249.3779   62.7452
  5.100  -36.0472   16.7388  -35.9959   16.7390  -36.0130   16.7390  -36.0353   16.7471  -36.0216   16.7391  -36.0078   16.7306 2183.6809   70.7701
  5.200  -30.6726    8.0095  -30.6276    8.0065  -30.6426    8.0075  -30.6637    8.0122  -30.6501    8.0081  -30.6363    8.0037  308.5074   71.9038
  5.300  -25.6598    4.9158  -25.6186    4.9132  -25.6323    4.9141  -25.6504    4.9171  -25.6392    4.9145  -25.6280    4.9119   25.4383   71.9973
  5.400  -21.8765    3.6002  -21.8375    3.5990  -21.8505    3.5994  -21.8662    3.6015  -21.8571    3.5996  -21.8479    3.5977    0.5540   71.9993
  5.500  -18.8175    3.0522  -18.7790    3.0535  -18.7918    3.0531  -18.8058    3.0543  -18.7982    3.0529  -18.7906    3.0514    3.4656   72.0121
  5.600  -16.0982    3.1450  -16.0580    3.1511  -16.0714    3.1490  -16.0844    3.1491  -16.0781    3.1480  -16.0718    3.1470  167.4037   72.6273
  5.700  -13.7201    4.5594  -13.6773    4.5783  -13.6916    4.5720  -13.7038    4.5694  -13.6987    4.5689  -13.6936    4.5683 1622.0048   78.5880
  5.800  -14.9681    7.5059  -14.9425    7.5498  -14.9509    7.5351  -14.9573    7.5293  -14.9552    7.5278  -14.9533    7.5264 3322.4470   90.7978
  5.900  -17.2087    4.5396  -17.2172    4.5683  -17.2144    4.5587  -17.2179    4.5573  -17.2130    4.5540  -17.2081    4.5506 1308.4232   95.6061
  6.000  -15.5756    2.3619  -15.5829    2.3723  -15.5805    2.3688  -15.5841    2.3686  -15.5793    2.3671  -15.5744    2.3656  105.2361   95.9929
  6.100  -13.9677    1.5746  -13.9709    1.5790  -13.9698    1.5775  -13.9734    1.5776  -13.9693    1.5768  -13.9652    1.5759    2.0604   96.0005
  6.200  -12.6833    1.2133  -12.6841    1.2154  -12.6838    1.2147  -12.6871    1.2150  -12.6837    1.2144  -12.6802    1.2138    0.0084   96.0005
  6.300  -11.6175    1.0148  -11.6170    1.0160  -11.6172    1.0156  -11.6202    1.0159  -11.6173    1.0154  -11.6143    1.0149    0.0047   96.0005
  6.400  -10.6926    0.9059  -10.6914    0.9065  -10.6918    0.9063  -10.6945    0.9066  -10.6920    0.9062  -10.6895    0.9057    1.8894   96.0074
  6.500   -9.8627    0.8919   -9.8611    0.8923   -9.8616    0.8922   -9.8640    0.8925   -9.8619    0.8921   -9.8597    0.8916  105.7844   96.3962
  6.600   -9.2207    1.0628   -9.2189    1.0630   -9.2195    1.0630   -9.2217    1.0636   -9.2198    1.0629   -9.2180    1.0623  837.4550   99.4738
  6.700   -8.9857    0.9700   -8.9838    0.9700   -8.9845    0.9700   -8.9868    0.9707   -8.9848    0.9700   -8.9828    0.9693 1002.3304  103.1573
  6.800   -8.4320    0.6927   -8.4302    0.6926   -8.4308    0.6927   -8.4330    0.6931   -8.4311    0.6927   -8.4293    0.6923  218.5508  103.9604
  6.900   -7.8484    0.5781   -7.8466    0.5780   -7.8472    0.5781   -7.8491    0.5783   -7.8475    0.5781   -7.8459    0.5778   10.6156  103.9995
  7.000   -7.3146    0.5233   -7.3130    0.5230   -7.3135    0.5231   -7.3151    0.5234   -7.3138    0.5232   -7.3124    0.5229    0.1235  103.9999
  7.100   -6.8159    0.4984   -6.8145    0.4981   -6.8150    0.4982   -6.8163    0.4984   -6.8152    0.4982   -6.8141    0.4980    4.7912  104.0175
  7.200   -6.3344    0.5073   -6.3335    0.5066   -6.3338    0.5068   -6.3349    0.5072   -6.3339    0.5070   -6.3330    0.5068  170.3165  104.6434
  7.300   -5.8614    0.5965   -5.8609    0.5950   -5.8611    0.5955   -5.8619    0.5960   -5.8612    0.5958   -5.8604    0.5956 1277.2524  109.3372
  7.400   -5.5670    0.8830   -5.5653    0.8796   -5.5659    0.8807   -5.5666    0.8816   -5.5662    0.8813   -5.5657    0.8810 3076.4240  120.6429
  7.500   -5.6375    0.7698   -5.6339    0.7682   -5.6351    0.7687   -5.6363    0.7695   -5.6357    0.7690   -5.6351    0.7685 1824.6350  127.3483
  7.600   -5.2722    0.5137   -5.2691    0.5130   -5.2702    0.5132   -5.2712    0.5136   -5.2707    0.5133   -5.2701    0.5130  174.6345  127.9901
  7.700   -4.8517    0.4321   -4.8490    0.4317   -4.8499    0.4318   -4.8507    0.4321   -4.8504    0.4319   -4.8500    0.4317    2.3577  127.9987
  7.800   -4.4480    0.4138   -4.4457    0.4136   -4.4464    0.4136   -4.4470    0.4139   -4.4468    0.4137   -4.4467    0.4135    0.0058  127.9987
  7.900   -4.0427    0.4351   -4.0405    0.4349   -4.0413    0.4350   -4.0416    0.4352   -4.0416    0.4350   -4.0417    0.4348    0.8730  128.0020
  8.000   -3.6115    0.5186   -3.6096    0.5184   -3.6102    0.5185   -3.6103    0.5187   -3.6106    0.5185   -3.6108    0.5183   79.9588  128.2958
  8.100   -3.1630    0.7786   -3.1612    0.7787   -3.1618    0.7786   -3.1616    0.7789   -3.1621    0.7786   -3.1626    0.7784 1221.0744  132.7832
  8.200   -3.1498    1.3060   -3.1487    1.3063   -3.1491    1.3062   -3.1483    1.3065   -3.1493    1.3061   -3.1503    1.3058 3790.0190  146.7112
  8.300   -3.3561    1.0044   -3.3558    1.0041   -3.3559    1.0042   -3.3546    1.0050   -3.3559    1.0043   -3.3573    1.0035 3015.0158  157.7912
  8.400   -2.8484    0.7612   -2.8485    0.7602   -2.8484    0.7605   -2.8466    0.7618   -2.8484    0.7607   -2.8503    0.7596  709.3369  160.3980
  8.500   -2.2123    0.8907   -2.2125    0.8875   -2.2124    0.8886   -2.2099    0.8915   -2.2124    0.8891   -2.2149    0.8868 1628.6076  166.3830
  8.600   -1.6761    1.4556   -1.6702    1.4511   -1.6721    1.4526   -1.6723    1.4578   -1.6732    1.4534   -1.6739    1.4490 5478.8848  186.5175
  8.700   -1.8190    1.9662   -1.8188    1.9735   -1.8189    1.9711   -1.8190    1.9716   -1.8189    1.9698   -1.8189    1.9681 6470.7901  210.2972
  8.800   -1.3854    2.1046   -1.3904    2.0977   -1.3887    2.1000   -1.3853    2.1040   -1.3879    2.1011   -1.3906    2.0982 4601.6647  227.2081
  8.900   -1.0538    2.7235   -1.0500    2.7176   -1.0512    2.7197   -1.0501    2.7284   -1.0519    2.7206   -1.0537    2.7127 3441.8128  239.8565
  9.000   -0.1237    4.3925   -0.1193    4.3818   -0.1208    4.3855   -0.1239    4.3977   -0.1216    4.3873   -0.1192    4.3767 2556.7273  249.2523
  9.100   -3.5023    8.0402   -3.4751    8.0428   -3.4844    8.0420   -3.5052    8.0453   -3.4889    8.0415   -3.4723    8.0378 1253.6396  253.8593
  9.200   -7.1199    4.1735   -7.1195    4.1878   -7.1197    4.1830   -7.1234    4.1755   -7.1197    4.1806   -7.1161    4.1857  330.5093  255.0739
  9.300   -6.0998    1.8092   -6.1024    1.8138   -6.1015    1.8122   -6.1024    1.8101   -6.1011    1.8115   -6.0998    1.8128  157.2086  255.6517
  9.400   -5.0816    1.0242   -5.0828    1.0259   -5.0824    1.0253   -5.0835    1.0247   -5.0822    1.0250   -5.0809    1.0254   87.4473  255.9730
  9.500   -4.3346    0.7160   -4.3350    0.7169   -4.3349    0.7166   -4.3362    0.7164   -4.3348    0.7165   -4.3335    0.7165    7.1597  255.9993
  9.600   -3.7373    0.5951   -3.7372    0.5956   -3.7372    0.5954   -3.7386    0.5954   -3.7372    0.5953   -3.7359    0.5953    0.0794  255.9996
  9.700   -3.1965    0.5924   -3.1959    0.5928   -3.1961    0.5927   -3.1975    0.5927   -3.1962    0.5926   -3.1950    0.5925    0.0497  255.9998
  9.800   -2.6390    0.7505   -2.6381    0.7510   -2.6384    0.7508   -2.6397    0.7509   -2.6385    0.7507   -2.6374    0.7506    9.4777  256.0332
  9.900   -2.0923    1.3403   -2.0911    1.3414   -2.0915    1.3410   -2.0929    1.3412   -2.0917    1.3409   -2.0905    1.3405  317.1770  257.3931
 10.000   -2.7055    2.4748   -2.7048    2.4763   -2.7051    2.4758   -2.7071    2.4756   -2.7051    2.4756   -2.7032    2.4754 2143.1158  260.3465
