# Macroscopic dielectric function obtained with the BS equation.
#  RPA L0 with KS energies and KS wavefunctions     LOCAL FIELD EFFECTS INCLUDED
# RESONANT-ONLY calculation
# Coulomb term constructed with full W(G1,G2)
# Scissor operator energy =  0.8000 [eV]
# Tolerance = -0.0010 0.0000
# npweps  = 51
# npwwfn  = 137
# nbands  = 8
# loband  = 2
# nkibz   = 64
# nkbz    = 64
# Lorentzian broadening =  0.1000 [eV]
# List of q-points for the optical limit:
# q =  0.938821, 0.000000, 0.000000, [Reduced coords] 
# q =  0.000000, 0.938821, 0.000000, [Reduced coords] 
# q =  0.000000, 0.000000, 0.938821, [Reduced coords] 
# q =  0.000000, 0.813043, 0.813043, [Reduced coords] 
# q =  0.813043, 0.000000, 0.813043, [Reduced coords] 
# q =  0.813043, 0.813043, 0.000000, [Reduced coords] 
# omega [eV]    RE(eps(q=1)) IM(eps(q=1) RE(eps(q=2) ) ... 
  0.000   20.1837    0.0000   19.8753    0.0000   19.3106    0.0000   17.5061    0.0000   17.9797    0.0000   18.2376    0.0000
  0.100   20.1984    0.0295   19.8897    0.0289   19.3244    0.0277   17.5180    0.0239   17.9921    0.0249   18.2503    0.0254
  0.200   20.2426    0.0592   19.9330    0.0581   19.3660    0.0557   17.5539    0.0481   18.0294    0.0501   18.2884    0.0511
  0.300   20.3167    0.0896   20.0057    0.0879   19.4357    0.0843   17.6140    0.0727   18.0921    0.0758   18.3523    0.0773
  0.400   20.4214    0.1209   20.1084    0.1185   19.5342    0.1137   17.6990    0.0980   18.1808    0.1022   18.4426    0.1042
  0.500   20.5580    0.1534   20.2423    0.1505   19.6626    0.1443   17.8097    0.1243   18.2962    0.1297   18.5603    0.1322
  0.600   20.7277    0.1876   20.4088    0.1840   19.8222    0.1764   17.9472    0.1519   18.4397    0.1585   18.7066    0.1616
  0.700   20.9325    0.2239   20.6096    0.2196   20.0147    0.2104   18.1130    0.1811   18.6126    0.1890   18.8829    0.1927
  0.800   21.1746    0.2627   20.8471    0.2577   20.2423    0.2469   18.3088    0.2123   18.8170    0.2216   19.0912    0.2259
  0.900   21.4569    0.3047   21.1239    0.2988   20.5075    0.2863   18.5368    0.2459   19.0550    0.2568   19.3339    0.2618
  1.000   21.7828    0.3506   21.4435    0.3438   20.8136    0.3292   18.7996    0.2825   19.3295    0.2951   19.6137    0.3009
  1.100   22.1565    0.4010   21.8099    0.3933   21.1645    0.3765   19.1005    0.3226   19.6438    0.3371   19.9343    0.3438
  1.200   22.5830    0.4572   22.2281    0.4483   21.5649    0.4291   19.4434    0.3671   20.0022    0.3838   20.2997    0.3914
  1.300   23.0685    0.5203   22.7043    0.5102   22.0205    0.4881   19.8330    0.4169   20.4096    0.4361   20.7151    0.4447
  1.400   23.6206    0.5918   23.2457    0.5804   22.5383    0.5549   20.2750    0.4731   20.8720    0.4952   21.1867    0.5050
  1.500   24.2486    0.6739   23.8616    0.6609   23.1270    0.6315   20.7765    0.5373   21.3970    0.5627   21.7222    0.5739
  1.600   24.9639    0.7690   24.5631    0.7543   23.7973    0.7203   21.3463    0.6114   21.9939    0.6408   22.3309    0.6536
  1.700   25.7810    0.8808   25.3646    0.8640   24.5624    0.8245   21.9951    0.6980   22.6741    0.7322   23.0247    0.7468
  1.800   26.7182    1.0138   26.2840    0.9946   25.4395    0.9484   22.7368    0.8005   23.4524    0.8405   23.8185    0.8572
  1.900   27.7990    1.1744   27.3444    1.1524   26.4504    1.0979   23.5890    0.9236   24.3476    0.9708   24.7315    0.9901
  2.000   29.0543    1.3717   28.5762    1.3464   27.6235    1.2814   24.5747    1.0740   25.3840    1.1302   25.7885    1.1526
  2.100   30.5251    1.6190   30.0200    1.5896   28.9971    1.5111   25.7243    1.2613   26.5942    1.3291   27.0228    1.3552
  2.200   32.2677    1.9359   31.7312    1.9018   30.6231    1.8054   27.0793    1.4998   28.0228    1.5829   28.4794    1.6136
  2.300   34.3611    2.3535   33.7881    2.3138   32.5747    2.1930   28.6977    1.8119   29.7319    1.9158   30.2216    1.9523
  2.400   36.9200    2.9230   36.3043    2.8766   34.9583    2.7211   30.6634    2.2345   31.8115    2.3675   32.3406    2.4113
  2.500   40.1180    3.7334   39.4524    3.6797   37.9346    3.4724   33.1024    2.8314   34.3974    3.0074   34.9740    3.0602
  2.600   44.2303    4.9530   43.5067    4.8927   41.7583    4.6027   36.2138    3.7229   37.7044    3.9661   38.3387    4.0301
  2.700   49.7171    6.9329   48.9275    6.8717   46.8560    6.4368   40.3287    5.1591   42.0908    5.5161   42.7957    5.5926
  2.800   57.3889   10.5097   56.5276   10.4727   53.9798    9.7473   46.0279    7.7348   48.1862    8.3078   48.9790    8.3915
  2.900   68.6387   18.0725   67.6968   18.1636   64.4348   16.7303   54.3039   13.1471   57.0690   14.2025   57.9840   14.2519
  3.000   84.1118   37.9740   82.8715   38.6468   79.0341   35.0673   65.5785   27.3208   69.1960   29.7240   70.4966   29.5482
  3.100   78.3440   89.3463   74.1433   90.4917   74.8251   84.9956   61.6651   63.1088   64.3665   69.5875   67.4162   70.9974
  3.200   14.9639   95.3789   10.9659   91.6181   10.1791   87.8521   20.5941   69.2260   15.0640   72.3870   14.7406   72.3914
  3.300    4.8828   66.9110    2.9791   61.8536    3.2996   58.4507    8.3576   51.1411   10.1876   49.3675   13.8995   48.9707
  3.400    1.5014   56.1086    1.5135   51.7196    2.1173   50.1505    6.7488   38.5562   10.5343   42.5162   14.8535   48.5292
  3.500   12.7278   52.6462   13.6771   45.2970   11.6624   40.6385   19.3120   32.9462   21.2724   42.0534   20.6209   50.8151
  3.600    0.5533   67.5221   10.6734   65.1823   15.9927   56.5505   23.9628   51.4711   12.3309   60.5044    3.8404   62.9780
  3.700  -14.6065   52.2199  -11.3261   55.9272   -5.2593   55.6261    3.2643   53.1463   -4.7583   48.7767  -10.1455   48.2744
  3.800   -8.3003   41.1253   -6.2481   44.3800   -0.0101   44.9921    2.9628   46.6243    0.1919   41.5653   -2.9262   37.9132
  3.900   -0.7797   43.3930   -2.6567   47.0298   -1.9669   53.1660   -1.1730   46.5777    0.2738   44.9900    0.6225   41.7112
  4.000   -6.0561   55.9732   -9.7681   54.6886  -11.3142   54.4923   -6.0800   49.1552   -5.7825   47.9290   -4.0660   46.7562
  4.100  -18.5783   54.5058  -19.3558   53.1148  -18.5696   52.9622  -12.6180   46.3458  -12.2338   47.1501  -10.6699   46.3914
  4.200  -32.9112   45.4710  -33.9037   43.7780  -34.1608   44.6247  -23.3194   39.2011  -22.9224   39.0903  -20.8369   40.7044
  4.300  -29.5003   29.0377  -30.9433   26.4870  -33.0045   25.9983  -19.6104   25.7498  -17.8486   27.2578  -17.2123   29.4551
  4.400  -22.1002   30.3923  -21.4824   23.1353  -23.0842   18.8188   -9.9865   25.1001  -11.1536   31.4900  -11.4052   34.5445
  4.500  -31.6497   30.5471  -20.2764   29.3378  -15.6429   21.8655   -9.6921   35.8896  -18.9930   34.6540  -21.9251   39.6439
  4.600  -31.6839   18.1243  -29.8143   23.5141  -21.1920   28.2614  -24.8343   35.7918  -25.7162   31.4597  -32.2269   27.8606
  4.700  -27.0080   12.7794  -26.5131   14.9006  -26.1960   18.4398  -29.1607   21.9558  -29.1780   19.9166  -28.9374   17.1916
  4.800  -21.8857    9.3791  -22.3993   11.5824  -21.6934   13.6867  -24.7350   14.6961  -23.8863   13.2515  -24.2495   11.9899
  4.900  -17.2002   10.2355  -18.3328   10.8033  -19.0840   12.7455  -20.3830   12.0067  -19.7556   11.3647  -19.4616   10.2753
  5.000  -16.3205   11.6086  -16.5931   12.1191  -17.4806   12.1661  -17.8900   11.0268  -17.1117   11.3454  -16.6845   10.3925
  5.100  -17.0388   11.6633  -17.9368   11.6660  -17.9000   12.0852  -16.9361   10.7628  -16.9966   10.7987  -16.0302   10.1604
  5.200  -16.4287    9.6470  -16.4373    8.8977  -17.0500    9.2148  -15.4737    8.3279  -14.9985    8.6065  -13.8832    9.4017
  5.300  -15.0795   10.5012  -14.9426    9.9778  -15.1784    9.3372  -12.2793    8.9935  -12.9662   10.3261  -13.4127   11.6342
  5.400  -17.1155    9.4479  -16.1589    9.0740  -15.8404    8.4137  -13.4868   10.6737  -14.8739   10.0293  -15.8708   10.3968
  5.500  -16.3142    6.6243  -15.5822    7.1497  -14.4176    6.9013  -13.9703    9.0398  -14.3613    8.2678  -15.3371    8.0060
  5.600  -14.6705    5.5545  -14.4412    6.0909  -13.4837    6.9180  -13.7637    8.2727  -13.8228    7.5063  -14.2973    6.7418
  5.700  -13.1394    5.3047  -13.3381    5.5007  -13.3854    6.2326  -13.6875    7.3749  -13.2871    6.8394  -13.4074    5.8052
  5.800  -13.3270    5.7531  -12.9316    5.7022  -12.8114    5.9410  -14.1387    6.4313  -13.3921    6.5758  -12.2531    5.8191
  5.900  -13.3493    4.0635  -13.0406    4.5289  -12.9343    4.9911  -13.4044    4.0868  -13.4760    4.6180  -12.9904    5.3528
