# Macroscopic dielectric function obtained with the BS equation.
#  RPA L0 with KS energies and KS wavefunctions     LOCAL FIELD EFFECTS INCLUDED
# RESONANT-ONLY calculation
# Coulomb term constructed with full W(G1,G2)
# Scissor operator energy =  0.8000 [eV]
# Tolerance = -0.0010 0.0000
# npweps  = 51
# npwwfn  = 169
# nbands  = 8
# loband  = 2
# nkibz   = 64
# nkbz    = 64
# Lorentzian broadening =  0.1000 [eV]
# List of q-points for the optical limit:
# q =  0.938821, 0.000000, 0.000000, [Reduced coords] 
# q =  0.000000, 0.938821, 0.000000, [Reduced coords] 
# q =  0.000000, 0.000000, 0.938821, [Reduced coords] 
# q =  0.000000, 0.813043, 0.813043, [Reduced coords] 
# q =  0.813043, 0.000000, 0.813043, [Reduced coords] 
# q =  0.813043, 0.813043, 0.000000, [Reduced coords] 
# omega [eV]    RE(eps(q=1)) IM(eps(q=1) RE(eps(q=2) ) ... 
  0.000   20.1670    0.0000   19.8584    0.0000   19.2924    0.0000   17.4883    0.0000   17.9617    0.0000   18.2187    0.0000
  0.100   20.1816    0.0295   19.8728    0.0289   19.3062    0.0277   17.5002    0.0239   17.9741    0.0249   18.2314    0.0254
  0.200   20.2258    0.0592   19.9161    0.0581   19.3477    0.0557   17.5360    0.0481   18.0115    0.0501   18.2695    0.0511
  0.300   20.2999    0.0896   19.9887    0.0878   19.4174    0.0842   17.5962    0.0727   18.0741    0.0758   18.3334    0.0772
  0.400   20.4046    0.1209   20.0915    0.1185   19.5159    0.1136   17.6811    0.0980   18.1627    0.1022   18.4237    0.1042
  0.500   20.5412    0.1534   20.2254    0.1504   19.6443    0.1442   17.7918    0.1243   18.2782    0.1296   18.5413    0.1322
  0.600   20.7109    0.1876   20.3918    0.1840   19.8038    0.1763   17.9293    0.1519   18.4216    0.1585   18.6875    0.1615
  0.700   20.9157    0.2239   20.5926    0.2195   19.9963    0.2104   18.0950    0.1811   18.5945    0.1890   18.8638    0.1926
  0.800   21.1578    0.2627   20.8300    0.2576   20.2238    0.2468   18.2907    0.2123   18.7988    0.2216   19.0721    0.2259
  0.900   21.4401    0.3047   21.1069    0.2988   20.4890    0.2862   18.5187    0.2459   19.0367    0.2567   19.3147    0.2617
  1.000   21.7659    0.3506   21.4264    0.3438   20.7951    0.3292   18.7815    0.2824   19.3112    0.2950   19.5944    0.3008
  1.100   22.1396    0.4010   21.7928    0.3933   21.1459    0.3765   19.0824    0.3226   19.6255    0.3371   19.9149    0.3437
  1.200   22.5661    0.4572   22.2111    0.4483   21.5462    0.4290   19.4252    0.3671   19.9838    0.3837   20.2802    0.3913
  1.300   23.0516    0.5203   22.6872    0.5102   22.0018    0.4880   19.8147    0.4168   20.3911    0.4360   20.6956    0.4446
  1.400   23.6038    0.5919   23.2287    0.5804   22.5196    0.5549   20.2567    0.4731   20.8535    0.4951   21.1671    0.5049
  1.500   24.2318    0.6739   23.8446    0.6610   23.1082    0.6315   20.7581    0.5373   21.3785    0.5627   21.7024    0.5738
  1.600   24.9472    0.7692   24.5462    0.7544   23.7785    0.7203   21.3279    0.6114   21.9753    0.6408   22.3111    0.6535
  1.700   25.7644    0.8810   25.3478    0.8641   24.5437    0.8246   21.9767    0.6980   22.6555    0.7322   23.0048    0.7467
  1.800   26.7018    1.0140   26.2673    0.9948   25.4208    0.9485   22.7185    0.8006   23.4339    0.8405   23.7986    0.8572
  1.900   27.7829    1.1747   27.3280    1.1527   26.4318    1.0980   23.5707    0.9237   24.3290    0.9709   24.7116    0.9901
  2.000   29.0386    1.3722   28.5602    1.3468   27.6051    1.2817   24.5565    1.0742   25.3656    1.1304   25.7687    1.1527
  2.100   30.5100    1.6196   30.0044    1.5903   28.9790    1.5115   25.7063    1.2616   26.5761    1.3294   27.0030    1.3554
  2.200   32.2534    1.9368   31.7164    1.9027   30.6055    1.8061   27.0617    1.5003   28.0051    1.5834   28.4599    1.6140
  2.300   34.3478    2.3549   33.7743    2.3151   32.5579    2.1940   28.6807    1.8127   29.7147    1.9166   30.2026    1.9529
  2.400   36.9083    2.9250   36.2921    2.8786   34.9426    2.7227   30.6473    2.2357   31.7953    2.3688   32.3224    2.4123
  2.500   40.1087    3.7365   39.4425    3.6828   37.9207    3.4749   33.0878    2.8334   34.3827    3.0094   34.9570    3.0619
  2.600   44.2245    4.9579   43.5002    4.8976   41.7472    4.6068   36.2014    3.7262   37.6920    3.9694   38.3236    4.0330
  2.700   49.7169    6.9413   48.9266    6.8802   46.8497    6.4440   40.3201    5.1648   42.0822    5.5220   42.7840    5.5978
  2.800   57.3980   10.5256   56.5360   10.4888   53.9814    9.7612   46.0255    7.7458   48.1841    8.3193   48.9731    8.4018
  2.900   68.6630   18.1074   67.7205   18.1998   64.4497   16.7617   54.3120   13.1720   57.0777   14.2286   57.9880   14.2755
  3.000   84.1488   38.0696   82.9063   38.7474   79.0609   35.1548   65.5948   27.3898   69.2123   29.7974   70.5091   29.6145
  3.100   78.2417   89.5403   74.0211   90.6900   74.7154   85.1922   61.5779   63.2493   64.2653   69.7332   67.3229   71.1443
  3.200   14.8039   95.3707   10.7981   91.5895   10.0007   87.8164   20.4537   69.2149   14.9335   72.3568   14.6052   72.3633
  3.300    4.8062   66.9125    2.9050   61.8376    3.2211   58.4199    8.2935   51.1200   10.1280   49.3572   13.8326   48.9541
  3.400    1.4153   56.1203    1.4349   51.7167    2.0361   50.1340    6.6878   38.5524   10.4663   42.5160   14.7795   48.5209
  3.500   12.6343   52.6690   13.6015   45.3019   11.5856   40.6235   19.2500   32.9500   21.1998   42.0589   20.5425   50.8118
  3.600    0.4205   67.5183   10.5635   65.1935   15.9048   56.5336   23.8761   51.4809   12.2342   60.4928    3.7494   62.9418
  3.700  -14.7281   52.1734  -11.4377   55.8878   -5.3406   55.5827    3.1726   53.1170   -4.8342   48.7378  -10.2020   48.2270
  3.800   -8.4001   41.0718   -6.3464   44.3410   -0.0871   44.9673    2.8843   46.6009    0.1244   41.5458   -2.9810   37.8985
  3.900   -0.8844   43.3422   -2.7660   46.9807   -2.0747   53.1287   -1.2645   46.5494    0.1778   44.9655    0.5340   41.6938
  4.000   -6.1832   55.8855   -9.8895   54.6006  -11.4319   54.4121   -6.1898   49.1015   -5.8891   47.8712   -4.1722   46.6997
  4.100  -18.6758   54.3617  -19.4513   52.9735  -18.6701   52.8261  -12.7219   46.2469  -12.3306   47.0483  -10.7572   46.2977
  4.200  -32.9208   45.3120  -33.9067   43.6184  -34.1639   44.4575  -23.3547   39.0690  -22.9526   38.9702  -20.8732   40.5925
  4.300  -29.4804   28.9470  -30.9151   26.4012  -32.9640   25.9101  -19.6109   25.6684  -17.8593   27.1854  -17.2313   29.3868
  4.400  -22.1129   30.3242  -21.4753   23.0789  -23.0665   18.7692  -10.0039   25.0444  -11.1881   31.4264  -11.4498   34.4759
  4.500  -31.6549   30.4408  -20.3037   29.2802  -15.6490   21.8253   -9.7377   35.8252  -19.0213   34.5630  -21.9689   39.5383
  4.600  -31.6570   18.0449  -29.8118   23.4244  -21.2232   28.1957  -24.8623   35.6884  -25.7319   31.3652  -32.2152   27.7499
  4.700  -26.9804   12.7200  -26.4979   14.8343  -26.1920   18.3667  -29.1454   21.8645  -29.1578   19.8324  -28.9081   17.1106
  4.800  -21.8700    9.3372  -22.3847   11.5282  -21.6883   13.6249  -24.7144   14.6290  -23.8672   13.1914  -24.2208   11.9361
  4.900  -17.2004   10.1869  -18.3288   10.7525  -19.0776   12.6858  -20.3693   11.9510  -19.7454   11.3138  -19.4502   10.2285
  5.000  -16.3166   11.5482  -16.5902   12.0559  -17.4740   12.1034  -17.8803   10.9705  -17.1045   11.2863  -16.6733   10.3400
  5.100  -17.0177   11.5993  -17.9113   11.6003  -17.8744   12.0169  -16.9163   10.7024  -16.9757   10.7424  -16.0152   10.1111
  5.200  -16.4006    9.5993  -16.4076    8.8543  -17.0150    9.1705  -15.4492    8.2852  -14.9802    8.5649  -13.8711    9.3555
  5.300  -15.0552   10.4549  -14.9202    9.9367  -15.1539    9.3020  -12.2676    8.9530  -12.9568   10.2765  -13.3960   11.5775
  5.400  -17.0832    9.4102  -16.1330    9.0368  -15.8188    8.3798  -13.4703   10.6252  -14.8450    9.9822  -15.8391   10.3567
  5.500  -16.2874    6.5952  -15.5594    7.1177  -14.3987    6.8688  -13.9494    8.9969  -14.3399    8.2356  -15.3179    7.9734
  5.600  -14.6465    5.5265  -14.4186    6.0589  -13.4656    6.8816  -13.7408    8.2286  -13.8088    7.4666  -14.2789    6.7011
  5.700  -13.1168    5.2785  -13.3130    5.4734  -13.3574    6.2001  -13.6545    7.3371  -13.2590    6.7944  -13.3765    5.7682
  5.800  -13.3026    5.7278  -12.9094    5.6780  -12.7867    5.9176  -14.1073    6.4025  -13.3547    6.5470  -12.2223    5.7934
  5.900  -13.3259    4.0448  -13.0192    4.5073  -12.9136    4.9691  -13.3750    4.0658  -13.4475    4.6012  -12.9641    5.3342
