# Macroscopic dielectric function obtained with the BS equation.
#  RPA L0 with KS energies and KS wavefunctions     LOCAL FIELD EFFECTS INCLUDED
# RESONANT-ONLY calculation
# Coulomb term constructed with full W(G1,G2)
# Scissor operator energy =  0.8000 [eV]
# Tolerance = -0.0010 0.0000
# npweps  = 51
# npwwfn  = 137
# nbands  = 8
# loband  = 2
# nkibz   = 64
# nkbz    = 64
# Lorentzian broadening =  0.1000 [eV]
# List of q-points for the optical limit:
# q =  0.938821, 0.000000, 0.000000, [Reduced coords] 
# q =  0.000000, 0.938821, 0.000000, [Reduced coords] 
# q =  0.000000, 0.000000, 0.938821, [Reduced coords] 
# q =  0.000000, 0.813043, 0.813043, [Reduced coords] 
# q =  0.813043, 0.000000, 0.813043, [Reduced coords] 
# q =  0.813043, 0.813043, 0.000000, [Reduced coords] 
# omega [eV]    RE(eps(q=1)) IM(eps(q=1) RE(eps(q=2) ) ... 
  0.000   20.1837    0.0000   19.8753    0.0000   19.3106    0.0000   17.5061    0.0000   17.9797    0.0000   18.2376    0.0000
  0.100   20.1984    0.0295   19.8897    0.0289   19.3244    0.0277   17.5180    0.0239   17.9921    0.0249   18.2502    0.0254
  0.200   20.2425    0.0592   19.9330    0.0581   19.3660    0.0557   17.5539    0.0481   18.0295    0.0501   18.2883    0.0511
  0.300   20.3166    0.0896   20.0056    0.0879   19.4357    0.0843   17.6140    0.0727   18.0922    0.0758   18.3522    0.0773
  0.400   20.4214    0.1209   20.1084    0.1185   19.5342    0.1137   17.6990    0.0980   18.1808    0.1022   18.4426    0.1042
  0.500   20.5579    0.1534   20.2423    0.1505   19.6626    0.1443   17.8097    0.1243   18.2962    0.1297   18.5603    0.1322
  0.600   20.7277    0.1876   20.4087    0.1840   19.8222    0.1764   17.9472    0.1519   18.4397    0.1585   18.7065    0.1616
  0.700   20.9325    0.2239   20.6096    0.2196   20.0147    0.2104   18.1130    0.1811   18.6127    0.1890   18.8829    0.1927
  0.800   21.1746    0.2627   20.8470    0.2577   20.2423    0.2469   18.3088    0.2123   18.8170    0.2216   19.0912    0.2259
  0.900   21.4569    0.3047   21.1238    0.2988   20.5075    0.2863   18.5368    0.2459   19.0550    0.2568   19.3339    0.2618
  1.000   21.7828    0.3506   21.4434    0.3438   20.8136    0.3292   18.7996    0.2825   19.3295    0.2951   19.6137    0.3009
  1.100   22.1564    0.4010   21.8099    0.3933   21.1645    0.3765   19.1005    0.3226   19.6439    0.3371   19.9343    0.3438
  1.200   22.5829    0.4572   22.2281    0.4483   21.5649    0.4291   19.4434    0.3671   20.0022    0.3838   20.2997    0.3914
  1.300   23.0685    0.5203   22.7043    0.5102   22.0205    0.4880   19.8330    0.4169   20.4096    0.4361   20.7151    0.4447
  1.400   23.6206    0.5918   23.2457    0.5804   22.5383    0.5549   20.2750    0.4731   20.8720    0.4952   21.1867    0.5050
  1.500   24.2485    0.6739   23.8615    0.6609   23.1270    0.6315   20.7765    0.5373   21.3970    0.5627   21.7221    0.5739
  1.600   24.9638    0.7690   24.5631    0.7543   23.7973    0.7203   21.3463    0.6114   21.9939    0.6408   22.3309    0.6536
  1.700   25.7809    0.8808   25.3646    0.8640   24.5624    0.8245   21.9951    0.6980   22.6742    0.7322   23.0247    0.7468
  1.800   26.7181    1.0138   26.2839    0.9946   25.4395    0.9484   22.7369    0.8005   23.4525    0.8405   23.8185    0.8572
  1.900   27.7990    1.1744   27.3443    1.1524   26.4504    1.0979   23.5891    0.9236   24.3476    0.9708   24.7314    0.9901
  2.000   29.0542    1.3717   28.5761    1.3464   27.6235    1.2814   24.5747    1.0740   25.3840    1.1302   25.7885    1.1526
  2.100   30.5251    1.6189   30.0199    1.5896   28.9971    1.5111   25.7243    1.2613   26.5943    1.3291   27.0227    1.3552
  2.200   32.2677    1.9359   31.7312    1.9018   30.6231    1.8054   27.0793    1.4998   28.0228    1.5829   28.4793    1.6136
  2.300   34.3610    2.3535   33.7880    2.3138   32.5747    2.1930   28.6977    1.8119   29.7319    1.9158   30.2215    1.9523
  2.400   36.9199    2.9230   36.3043    2.8766   34.9583    2.7211   30.6634    2.2345   31.8115    2.3675   32.3405    2.4113
  2.500   40.1179    3.7333   39.4524    3.6797   37.9346    3.4724   33.1024    2.8314   34.3974    3.0074   34.9740    3.0602
  2.600   44.2301    4.9530   43.5066    4.8927   41.7583    4.6027   36.2138    3.7229   37.7044    3.9661   38.3386    4.0301
  2.700   49.7169    6.9328   48.9274    6.8717   46.8560    6.4368   40.3287    5.1591   42.0908    5.5161   42.7956    5.5925
  2.800   57.3887   10.5097   56.5275   10.4726   53.9799    9.7474   46.0278    7.7348   48.1862    8.3078   48.9788    8.3914
  2.900   68.6385   18.0724   67.6967   18.1636   64.4348   16.7304   54.3039   13.1471   57.0691   14.2025   57.9839   14.2518
  3.000   84.1116   37.9739   82.8714   38.6468   79.0342   35.0673   65.5785   27.3208   69.1960   29.7240   70.4964   29.5481
  3.100   78.3437   89.3461   74.1431   90.4916   74.8251   84.9958   61.6650   63.1089   64.3665   69.5876   67.4160   70.9972
  3.200   14.9636   95.3786   10.9657   91.6180   10.1789   87.8523   20.5939   69.2261   15.0638   72.3870   14.7406   72.3912
  3.300    4.8826   66.9107    2.9788   61.8535    3.2993   58.4506    8.3573   51.1409   10.1875   49.3673   13.8995   48.9707
  3.400    1.5012   56.1082    1.5131   51.7194    2.1170   50.1504    6.7488   38.5558   10.5343   42.5161   14.8531   48.5292
  3.500   12.7276   52.6456   13.6766   45.2966   11.6621   40.6382   19.3120   32.9460   21.2723   42.0533   20.6205   50.8148
  3.600    0.5536   67.5213   10.6733   65.1815   15.9925   56.5500   23.9628   51.4707   12.3310   60.5040    3.8403   62.9776
  3.700  -14.6059   52.2195  -11.3259   55.9266   -5.2593   55.6257    3.2648   53.1461   -4.7580   48.7767  -10.1458   48.2740
  3.800   -8.3000   41.1251   -6.2479   44.3794   -0.0102   44.9917    2.9630   46.6247    0.1920   41.5654   -2.9263   37.9122
  3.900   -0.7793   43.3928   -2.6562   47.0293   -1.9666   53.1653   -1.1735   46.5778    0.2737   44.9901    0.6235   41.7105
  4.000   -6.0557   55.9731   -9.7676   54.6884  -11.3137   54.4921   -6.0800   49.1546   -5.7826   47.9289   -4.0655   46.7564
  4.100  -18.5782   54.5059  -19.3555   53.1148  -18.5693   52.9622  -12.6176   46.3454  -12.2339   47.1498  -10.6699   46.3913
  4.200  -32.9112   45.4709  -33.9036   43.7780  -34.1607   44.6248  -23.3192   39.2011  -22.9226   39.0898  -20.8366   40.7040
  4.300  -29.5002   29.0375  -30.9432   26.4869  -33.0045   25.9982  -19.6103   25.7498  -17.8489   27.2578  -17.2119   29.4549
  4.400  -22.1001   30.3921  -21.4823   23.1351  -23.0842   18.8187   -9.9865   25.1000  -11.1530   31.4900  -11.4049   34.5444
  4.500  -31.6494   30.5468  -20.2763   29.3374  -15.6430   21.8652   -9.6920   35.8893  -18.9926   34.6525  -21.9249   39.6439
  4.600  -31.6836   18.1242  -29.8138   23.5139  -21.1917   28.2610  -24.8340   35.7916  -25.7171   31.4602  -32.2267   27.8605
  4.700  -27.0078   12.7793  -26.5128   14.9005  -26.1956   18.4396  -29.1605   21.9556  -29.1768   19.9163  -28.9371   17.1916
  4.800  -21.8855    9.3790  -22.3990   11.5823  -21.6931   13.6866  -24.7346   14.6960  -23.8868   13.2517  -24.2492   11.9898
  4.900  -17.2000   10.2354  -18.3325   10.8033  -19.0837   12.7454  -20.3828   12.0067  -19.7549   11.3643  -19.4613   10.2753
  5.000  -16.3202   11.6085  -16.5928   12.1190  -17.4802   12.1661  -17.8897   11.0266  -17.1113   11.3456  -16.6842   10.3924
  5.100  -17.0384   11.6632  -17.9364   11.6660  -17.8996   12.0853  -16.9356   10.7629  -16.9965   10.7989  -16.0298   10.1605
  5.200  -16.4283    9.6470  -16.4370    8.8977  -17.0497    9.2149  -15.4733    8.3281  -14.9986    8.6065  -13.8829    9.4017
  5.300  -15.0791   10.5013  -14.9422    9.9779  -15.1780    9.3373  -12.2791    8.9937  -12.9656   10.3251  -13.4123   11.6342
  5.400  -17.1151    9.4483  -16.1585    9.0743  -15.8399    8.4140  -13.4866   10.6737  -14.8715   10.0315  -15.8704   10.3970
  5.500  -16.3141    6.6247  -15.5821    7.1502  -14.4174    6.9019  -13.9696    9.0402  -14.3644    8.2700  -15.3368    8.0064
  5.600  -14.6705    5.5547  -14.4412    6.0912  -13.4838    6.9184  -13.7636    8.2736  -13.8248    7.5019  -14.2973    6.7421
  5.700  -13.1394    5.3049  -13.3382    5.5010  -13.3855    6.2329  -13.6882    7.3755  -13.2810    6.8383  -13.4074    5.8054
  5.800  -13.3271    5.7533  -12.9317    5.7024  -12.8116    5.9412  -14.1393    6.4310  -13.3914    6.5820  -12.2531    5.8193
  5.900  -13.3496    4.0635  -13.0409    4.5289  -12.9345    4.9912  -13.4046    4.0865  -13.4798    4.6197  -12.9906    5.3529
