# Macroscopic dielectric function obtained with the BS equation.
#  RPA L0 with KS energies and KS wavefunctions     LOCAL FIELD EFFECTS INCLUDED
# RESONANT-ONLY calculation
# Coulomb term constructed with full W(G1,G2)
# Scissor operator energy =  0.8000 [eV]
# Tolerance = -0.0010 0.0000
# npweps  = 51
# npwwfn  = 137
# nbands  = 8
# loband  = 2
# nkibz   = 8
# nkbz    = 8
# Lorentzian broadening =  0.1000 [eV]
# List of q-points for the optical limit:
# q =  0.938821, 0.000000, 0.000000, [Reduced coords] 
# q =  0.000000, 0.938821, 0.000000, [Reduced coords] 
# q =  0.000000, 0.000000, 0.938821, [Reduced coords] 
# q =  0.000000, 0.813043, 0.813043, [Reduced coords] 
# q =  0.813043, 0.000000, 0.813043, [Reduced coords] 
# q =  0.813043, 0.813043, 0.000000, [Reduced coords] 
# omega [eV]    RE(eps(q=1)) IM(eps(q=1) RE(eps(q=2) ) ... 
  0.000   18.9684    0.0000   18.6569    0.0000   18.1340    0.0000   16.5618    0.0000   17.0023    0.0000   17.2724    0.0000
  0.100   18.9802    0.0238   18.6684    0.0232   18.1451    0.0223   16.5716    0.0196   17.0125    0.0204   17.2828    0.0209
  0.200   19.0159    0.0478   18.7033    0.0467   18.1785    0.0447   16.6009    0.0393   17.0431    0.0410   17.3142    0.0420
  0.300   19.0756    0.0722   18.7616    0.0705   18.2344    0.0676   16.6501    0.0594   17.0944    0.0619   17.3667    0.0635
  0.400   19.1600    0.0972   18.8440    0.0949   18.3135    0.0910   16.7196    0.0800   17.1668    0.0834   17.4409    0.0855
  0.500   19.2698    0.1231   18.9512    0.1202   18.4162    0.1153   16.8098    0.1012   17.2610    0.1056   17.5374    0.1082
  0.600   19.4060    0.1502   19.0841    0.1466   18.5436    0.1405   16.9217    0.1234   17.3777    0.1287   17.6570    0.1319
  0.700   19.5697    0.1786   19.2440    0.1744   18.6968    0.1671   17.0562    0.1466   17.5180    0.1530   17.8009    0.1568
  0.800   19.7626    0.2088   19.4323    0.2038   18.8773    0.1952   17.2145    0.1712   17.6832    0.1787   17.9702    0.1832
  0.900   19.9866    0.2410   19.6509    0.2352   19.0867    0.2253   17.3981    0.1975   17.8748    0.2062   18.1667    0.2114
  1.000   20.2438    0.2758   19.9019    0.2692   19.3271    0.2577   17.6088    0.2257   18.0948    0.2357   18.3923    0.2417
  1.100   20.5371    0.3136   20.1882    0.3060   19.6012    0.2929   17.8487    0.2562   18.3453    0.2677   18.6492    0.2746
  1.200   20.8698    0.3550   20.5127    0.3463   19.9118    0.3314   18.1204    0.2896   18.6292    0.3027   18.9404    0.3105
  1.300   21.2456    0.4007   20.8794    0.3909   20.2626    0.3738   18.4268    0.3264   18.9496    0.3413   19.2691    0.3502
  1.400   21.6694    0.4516   21.2928    0.4405   20.6579    0.4211   18.7717    0.3671   19.3103    0.3842   19.6393    0.3942
  1.500   22.1467    0.5089   21.7584    0.4963   21.1028    0.4741   19.1595    0.4128   19.7161    0.4322   20.0558    0.4436
  1.600   22.6845    0.5738   22.2828    0.5595   21.6038    0.5342   19.5953    0.4643   20.1726    0.4865   20.5244    0.4995
  1.700   23.2911    0.6481   22.8742    0.6319   22.1683    0.6029   20.0857    0.5231   20.6865    0.5485   21.0521    0.5633
  1.800   23.9768    0.7342   23.5426    0.7156   22.8059    0.6822   20.6384    0.5907   21.2663    0.6200   21.6477    0.6369
  1.900   24.7545    0.8348   24.3005    0.8135   23.5283    0.7750   21.2633    0.6695   21.9224    0.7033   22.3218    0.7228
  2.000   25.6401    0.9541   25.1635    0.9296   24.3500    0.8846   21.9726    0.7623   22.6678    0.8017   23.0880    0.8242
  2.100   26.6544    1.0974   26.1517    1.0690   25.2900    1.0162   22.7817    0.8731   23.5192    0.9194   23.9634    0.9456
  2.200   27.8240    1.2723   27.2909    1.2392   26.3725    1.1764   23.7107    1.0076   24.4980    1.0625   24.9701    1.0931
  2.300   29.1843    1.4898   28.6156    1.4507   27.6295    1.3753   24.7859    1.1735   25.6324    1.2396   26.1375    1.2758
  2.400   30.7830    1.7660   30.1724    1.7195   29.1044    1.6273   26.0426    1.3827   26.9608    1.4633   27.5048    1.5066
  2.500   32.6865    2.1259   32.0258    2.0700   30.8573    1.9550   27.5297    1.6532   28.5356    1.7534   29.1265    1.8059
  2.600   34.9902    2.6101   34.2689    2.5419   32.9742    2.3949   29.3167    2.0138   30.4324    2.1413   31.0803    2.2061
  2.700   37.8358    3.2879   37.0401    3.2033   35.5833    3.0092   31.5064    2.5137   32.7627    2.6810   33.4815    2.7628
  2.800   41.4446    4.2868   40.5561    4.1801   38.8835    3.9122   34.2578    3.2427   35.6998    3.4714   36.5086    3.5778
  2.900   46.1797    5.8649   45.1731    5.7281   43.2018    5.3348   37.8300    4.3811   39.5273    4.7117   40.4537    4.8559
  3.000   52.6707    8.6135   51.5101    8.4375   49.1040    7.8044   42.6688    6.3394   44.7344    6.8577   45.8204    7.0656
  3.100   62.0184   14.1385   60.6453   13.9257   57.5830   12.7464   49.5490   10.2245   52.1746   11.1440   53.4868   11.4765
  3.200   75.3517   27.8050   73.5782   27.6361   69.7388   24.9084   59.2612   19.7052   62.7320   21.6885   64.3715   22.3379
  3.300   80.7593   65.1977   77.4801   64.4889   75.4662   58.9955   63.8784   44.9055   67.4139   50.5238   68.8084   52.4827
  3.400   35.5938   90.9727   32.7619   88.4558   33.9770   82.0921   36.9628   66.5611   31.9503   70.5737   32.8105   68.6305
  3.500   13.6571   70.7630   10.0629   66.4726   10.6100   64.9619   14.5967   54.1411   16.0697   53.5987   21.0378   55.0315
  3.600    3.3038   59.8119    3.8967   53.3116    4.4714   50.9312    9.3628   40.7682   12.8393   44.8610   17.7891   52.0809
  3.700   11.1743   51.2668   14.2597   43.2360   13.4016   38.1902   20.6516   33.4736   21.7370   42.7113   21.1577   53.7067
  3.800    4.3703   58.3649   15.4036   58.4165   22.1280   52.3609   25.4909   48.3920   15.3011   56.7510    3.2722   62.0171
  3.900   -3.9447   50.8388   -1.7018   55.6682    2.9866   56.2339    9.8640   54.1069   -0.1714   49.5931   -7.2689   47.1020
  4.000   -2.8997   42.3304   -1.9356   44.9641    3.2240   45.6144    3.8774   47.2826    1.8435   41.6534   -1.7362   36.5284
  4.100    4.0932   41.2749    2.6675   44.1673    2.9298   49.8927    1.4146   43.6908    3.1851   41.4852    4.3751   38.3591
  4.200    5.9177   50.7382    2.7185   49.7319    0.3249   49.6502    2.9622   44.4805    3.9984   43.4134    4.6724   42.4783
  4.300    2.2373   60.8158    1.3799   59.6035    1.4236   58.1654    3.0303   50.5539    4.0034   52.1996    4.5958   50.6555
  4.400  -21.1767   65.5772  -22.1483   63.7244  -22.0340   63.5462  -13.9820   54.2394  -14.2584   54.8075  -11.9785   55.3969
  4.500  -33.5147   49.3208  -35.0726   45.9304  -36.3766   45.6038  -22.3854   41.2976  -21.0294   42.6058  -20.0593   44.8109
  4.600  -31.9195   41.5512  -29.3010   33.3871  -30.9963   28.5927  -16.2580   33.7245  -18.6562   40.5335  -19.0206   43.8688
  4.700  -40.5032   33.2935  -28.9882   35.0828  -22.2271   27.9193  -17.3015   41.6918  -26.0989   37.9113  -30.9505   42.5899
  4.800  -36.2666   19.3676  -35.2469   24.5341  -28.5502   30.7923  -31.7826   36.2135  -31.8394   31.9701  -36.6692   26.7155
  4.900  -30.3613   14.4516  -29.8844   16.1779  -30.0617   19.2595  -32.4726   21.5323  -31.9216   19.6595  -30.9880   17.4134
  5.000  -25.0870   10.6090  -25.3410   12.9040  -24.7252   14.6036  -26.9683   14.7953  -25.8827   13.5546  -26.4363   12.7008
  5.100  -19.6316   11.0422  -20.5747   11.6775  -21.3427   13.5168  -22.1015   12.2757  -21.2315   11.8872  -21.2767   10.7391
  5.200  -18.2390   12.7582  -17.9210   13.5895  -19.2166   13.5634  -19.2703   11.9221  -18.1105   12.5114  -18.1423   11.0810
  5.300  -19.4390   13.1005  -20.5886   13.5434  -20.4512   13.5761  -18.9825   11.7345  -19.2010   12.2689  -17.7759   11.2422
  5.400  -19.0612   10.4636  -19.2022    9.9548  -19.6071   10.1239  -17.4569    8.8927  -17.2696    9.4395  -16.0208   10.2611
  5.500  -17.5931   10.7069  -17.5804   10.4088  -17.6761    9.7301  -14.2463    9.5874  -15.4014   10.9448  -15.8700   11.8790
  5.600  -19.0704    9.2851  -18.4473    9.0008  -18.0271    8.4496  -16.0032   10.6930  -17.4025    9.7571  -18.1691   10.0952
  5.700  -18.0445    6.5032  -17.3616    7.0234  -16.2569    6.6979  -16.0811    8.3928  -16.3320    7.5192  -17.1074    7.1166
  5.800  -16.1777    5.3017  -16.0501    5.8820  -15.1501    6.6850  -15.3561    7.2634  -15.2623    6.6194  -15.4982    5.9004
  5.900  -14.4807    4.9137  -14.7412    5.1590  -14.7533    5.7660  -14.6678    6.1828  -14.2727    5.8288  -14.2894    4.9527
