# Macroscopic dielectric function obtained with the BS equation.
#  RPA L0 with KS energies and KS wavefunctions     LOCAL FIELD EFFECTS INCLUDED
# RESONANT-ONLY calculation
# Coulomb term constructed with full W(G1,G2)
# Scissor operator energy =  0.8000 [eV]
# nstates included in the diagonalization = 96
# npweps  = 113
# npwwfn  = 283
# nbands  = 8
# loband  = 2
# nkibz   = 3
# nkbz    = 8
# Lorentzian broadening =  0.0000 [eV]
# List of q-points for the optical limit:
# q =  0.938821, 0.000000, 0.000000, [Reduced coords] 
# q =  0.000000, 0.938821, 0.000000, [Reduced coords] 
# q =  0.000000, 0.000000, 0.938821, [Reduced coords] 
# q =  0.000000, 0.813043, 0.813043, [Reduced coords] 
# q =  0.813043, 0.000000, 0.813043, [Reduced coords] 
# q =  0.813043, 0.813043, 0.000000, [Reduced coords] 
# omega [eV]    RE(eps(q=1)) IM(eps(q=1) RE(eps(q=2) ) ... DOS   IDOS
  0.000   57.5754    0.4343   57.4599    0.5791   57.4796    0.5743   57.4977    0.3957   57.6833    0.5279   57.6868    0.5354   -0.0000   -0.0000
  0.010   57.5760    0.4532   57.4602    0.5984   57.4798    0.5936   57.4983    0.4147   57.6837    0.5478   57.6872    0.5553   -0.0000   -0.0000
  0.020   57.5778    0.4720   57.4618    0.6178   57.4814    0.6130   57.5002    0.4338   57.6853    0.5677   57.6888    0.5752   -0.0000   -0.0000
  0.030   57.5809    0.4909   57.4645    0.6372   57.4841    0.6324   57.5033    0.4529   57.6882    0.5876   57.6917    0.5952   -0.0000   -0.0000
  0.040   57.5851    0.5098   57.4685    0.6567   57.4881    0.6518   57.5077    0.4720   57.6924    0.6076   57.6959    0.6152   -0.0000   -0.0000
  0.050   57.5907    0.5288   57.4738    0.6762   57.4933    0.6713   57.5132    0.4912   57.6978    0.6277   57.7012    0.6353   -0.0000   -0.0000
  0.060   57.5974    0.5478   57.4803    0.6957   57.4998    0.6908   57.5201    0.5103   57.7044    0.6477   57.7079    0.6554   -0.0000   -0.0000
  0.070   57.6054    0.5668   57.4880    0.7153   57.5075    0.7104   57.5281    0.5296   57.7123    0.6679   57.7158    0.6755   -0.0000   -0.0000
  0.080   57.6147    0.5859   57.4969    0.7350   57.5164    0.7300   57.5374    0.5488   57.7214    0.6880   57.7249    0.6957   -0.0000   -0.0000
  0.090   57.6252    0.6051   57.5071    0.7546   57.5266    0.7497   57.5480    0.5682   57.7318    0.7083   57.7353    0.7159   -0.0000   -0.0000
  0.100   57.6369    0.6242   57.5185    0.7744   57.5380    0.7695   57.5598    0.5875   57.7434    0.7285   57.7469    0.7362   -0.0000   -0.0000
  0.110   57.6499    0.6435   57.5312    0.7942   57.5506    0.7893   57.5728    0.6069   57.7563    0.7489   57.7598    0.7566   -0.0000   -0.0000
  0.120   57.6642    0.6627   57.5451    0.8141   57.5645    0.8091   57.5871    0.6264   57.7704    0.7693   57.7739    0.7770   -0.0000   -0.0000
  0.130   57.6796    0.6821   57.5602    0.8340   57.5796    0.8290   57.6026    0.6459   57.7858    0.7897   57.7893    0.7975   -0.0000   -0.0000
  0.140   57.6964    0.7015   57.5766    0.8540   57.5960    0.8490   57.6194    0.6655   57.8025    0.8102   57.8060    0.8180   -0.0000   -0.0000
  0.150   57.7144    0.7209   57.5942    0.8741   57.6136    0.8691   57.6374    0.6851   57.8204    0.8308   57.8239    0.8386   -0.0000   -0.0000
  0.160   57.7336    0.7404   57.6131    0.8942   57.6324    0.8892   57.6567    0.7048   57.8396    0.8515   57.8430    0.8593   -0.0000   -0.0000
  0.170   57.7541    0.7600   57.6333    0.9144   57.6526    0.9094   57.6773    0.7245   57.8600    0.8722   57.8635    0.8801   -0.0000   -0.0000
  0.180   57.7759    0.7797   57.6546    0.9347   57.6739    0.9297   57.6991    0.7444   57.8817    0.8930   57.8852    0.9009   -0.0000   -0.0000
  0.190   57.7990    0.7994   57.6773    0.9551   57.6966    0.9501   57.7221    0.7643   57.9047    0.9139   57.9082    0.9218   -0.0000   -0.0000
  0.200   57.8233    0.8192   57.7012    0.9756   57.7204    0.9705   57.7465    0.7842   57.9290    0.9349   57.9324    0.9428   -0.0000   -0.0000
  0.210   57.8488    0.8391   57.7264    0.9961   57.7456    0.9911   57.7721    0.8043   57.9545    0.9560   57.9580    0.9639   -0.0000   -0.0000
  0.220   57.8757    0.8591   57.7528    1.0167   57.7720    1.0117   57.7990    0.8244   57.9813    0.9771   57.9848    0.9851   -0.0000   -0.0000
  0.230   57.9038    0.8791   57.7805    1.0375   57.7997    1.0324   57.8271    0.8446   58.0094    0.9984   58.0129    1.0063   -0.0000   -0.0000
  0.240   57.9333    0.8992   57.8095    1.0583   57.8287    1.0532   57.8566    0.8649   58.0388    1.0197   58.0422    1.0277   -0.0000   -0.0000
  0.250   57.9640    0.9195   57.8397    1.0792   57.8589    1.0741   57.8873    0.8853   58.0695    1.0411   58.0729    1.0491   -0.0000   -0.0000
  0.260   57.9960    0.9398   57.8713    1.1002   57.8904    1.0951   57.9193    0.9058   58.1014    1.0627   58.1049    1.0707   -0.0000   -0.0000
  0.270   58.0293    0.9602   57.9041    1.1214   57.9233    1.1163   57.9526    0.9263   58.1347    1.0843   58.1382    1.0924   -0.0000   -0.0000
  0.280   58.0638    0.9807   57.9382    1.1426   57.9574    1.1375   57.9872    0.9470   58.1693    1.1060   58.1727    1.1141   -0.0000   -0.0000
  0.290   58.0997    1.0013   57.9736    1.1640   57.9928    1.1588   58.0231    0.9678   58.2052    1.1279   58.2086    1.1360   -0.0000   -0.0000
  0.300   58.1370    1.0220   58.0103    1.1854   58.0295    1.1803   58.0603    0.9886   58.2424    1.1499   58.2458    1.1580   -0.0000   -0.0000
  0.310   58.1755    1.0429   58.0484    1.2070   58.0675    1.2018   58.0989    1.0096   58.2809    1.1720   58.2844    1.1801   -0.0000   -0.0000
  0.320   58.2153    1.0638   58.0877    1.2287   58.1068    1.2235   58.1387    1.0307   58.3207    1.1942   58.3242    1.2023   -0.0000   -0.0000
  0.330   58.2565    1.0848   58.1283    1.2505   58.1474    1.2453   58.1799    1.0519   58.3619    1.2165   58.3654    1.2247   -0.0000   -0.0000
  0.340   58.2990    1.1060   58.1703    1.2725   58.1894    1.2673   58.2224    1.0732   58.4044    1.2390   58.4079    1.2472   -0.0000   -0.0000
  0.350   58.3428    1.1273   58.2136    1.2945   58.2327    1.2894   58.2662    1.0946   58.4483    1.2616   58.4518    1.2698   -0.0000   -0.0000
  0.360   58.3880    1.1487   58.2582    1.3168   58.2773    1.3116   58.3114    1.1162   58.4935    1.2843   58.4970    1.2925   -0.0000   -0.0000
  0.370   58.4345    1.1702   58.3042    1.3391   58.3233    1.3339   58.3579    1.1379   58.5401    1.3071   58.5436    1.3154   -0.0000   -0.0000
  0.380   58.4824    1.1919   58.3515    1.3616   58.3706    1.3564   58.4058    1.1597   58.5880    1.3302   58.5915    1.3384   -0.0000   -0.0000
  0.390   58.5317    1.2137   58.4002    1.3842   58.4192    1.3790   58.4550    1.1816   58.6373    1.3533   58.6408    1.3616   -0.0000   -0.0000
  0.400   58.5823    1.2357   58.4502    1.4070   58.4692    1.4018   58.5056    1.2037   58.6880    1.3766   58.6915    1.3849   -0.0000   -0.0000
  0.410   58.6343    1.2577   58.5016    1.4300   58.5206    1.4247   58.5576    1.2259   58.7400    1.4000   58.7435    1.4084   -0.0000   -0.0000
  0.420   58.6877    1.2800   58.5543    1.4530   58.5734    1.4478   58.6110    1.2483   58.7935    1.4237   58.7970    1.4320   -0.0000   -0.0000
  0.430   58.7425    1.3023   58.6085    1.4763   58.6275    1.4710   58.6657    1.2708   58.8483    1.4474   58.8518    1.4558   -0.0000   -0.0000
  0.440   58.7986    1.3249   58.6640    1.4997   58.6831    1.4944   58.7219    1.2935   58.9046    1.4713   58.9080    1.4798   -0.0000   -0.0000
  0.450   58.8562    1.3475   58.7209    1.5233   58.7400    1.5180   58.7794    1.3163   58.9622    1.4954   58.9657    1.5039   -0.0000   -0.0000
  0.460   58.9152    1.3704   58.7793    1.5470   58.7983    1.5417   58.8384    1.3393   59.0213    1.5197   59.0248    1.5282   -0.0000   -0.0000
  0.470   58.9756    1.3934   58.8390    1.5709   58.8581    1.5656   58.8988    1.3624   59.0818    1.5442   59.0853    1.5526   -0.0000   -0.0000
  0.480   59.0375    1.4166   58.9002    1.5950   58.9192    1.5897   58.9606    1.3857   59.1438    1.5688   59.1473    1.5773   -0.0000   -0.0000
  0.490   59.1008    1.4399   58.9628    1.6193   58.9819    1.6140   59.0239    1.4092   59.2072    1.5936   59.2107    1.6021   -0.0000   -0.0000
  0.500   59.1655    1.4634   59.0269    1.6438   59.0459    1.6384   59.0886    1.4328   59.2720    1.6186   59.2755    1.6271   -0.0000   -0.0000
  0.510   59.2318    1.4871   59.0923    1.6684   59.1114    1.6631   59.1548    1.4566   59.3383    1.6438   59.3418    1.6524   -0.0000   -0.0000
  0.520   59.2994    1.5110   59.1593    1.6933   59.1783    1.6879   59.2224    1.4806   59.4061    1.6692   59.4096    1.6778   -0.0000   -0.0000
  0.530   59.3686    1.5351   59.2277    1.7183   59.2468    1.7129   59.2916    1.5048   59.4754    1.6948   59.4789    1.7034   -0.0000   -0.0000
  0.540   59.4393    1.5593   59.2976    1.7436   59.3167    1.7382   59.3622    1.5292   59.5462    1.7206   59.5497    1.7292   -0.0000   -0.0000
  0.550   59.5114    1.5838   59.3690    1.7691   59.3881    1.7636   59.4343    1.5538   59.6185    1.7466   59.6220    1.7552   -0.0000   -0.0000
  0.560   59.5851    1.6084   59.4419    1.7947   59.4609    1.7893   59.5079    1.5786   59.6923    1.7728   59.6958    1.7815   -0.0000   -0.0000
  0.570   59.6603    1.6333   59.5163    1.8206   59.5353    1.8152   59.5831    1.6036   59.7677    1.7992   59.7712    1.8079   -0.0000   -0.0000
  0.580   59.7370    1.6583   59.5922    1.8467   59.6113    1.8413   59.6598    1.6288   59.8445    1.8259   59.8480    1.8346   -0.0000   -0.0000
  0.590   59.8153    1.6836   59.6696    1.8731   59.6887    1.8676   59.7380    1.6542   59.9230    1.8528   59.9265    1.8615   -0.0000   -0.0000
  0.600   59.8951    1.7091   59.7486    1.8997   59.7677    1.8942   59.8178    1.6798   60.0030    1.8799   60.0065    1.8887   -0.0000   -0.0000
  0.610   59.9765    1.7348   59.8292    1.9265   59.8483    1.9209   59.8991    1.7056   60.0845    1.9073   60.0880    1.9161   -0.0000   -0.0000
  0.620   60.0595    1.7608   59.9113    1.9535   59.9304    1.9480   59.9820    1.7317   60.1677    1.9349   60.1712    1.9437   -0.0000   -0.0000
  0.630   60.1441    1.7870   59.9950    1.9808   60.0141    1.9753   60.0665    1.7580   60.2524    1.9628   60.2560    1.9716   -0.0000   -0.0000
  0.640   60.2302    1.8134   60.0803    2.0084   60.0994    2.0028   60.1527    1.7846   60.3388    1.9909   60.3423    1.9998   -0.0000   -0.0000
  0.650   60.3181    1.8401   60.1672    2.0362   60.1863    2.0306   60.2404    1.8114   60.4268    2.0193   60.4303    2.0282   -0.0000   -0.0000
  0.660   60.4075    1.8670   60.2557    2.0642   60.2748    2.0587   60.3298    1.8384   60.5164    2.0479   60.5200    2.0568   -0.0000   -0.0000
  0.670   60.4986    1.8942   60.3459    2.0926   60.3650    2.0870   60.4208    1.8657   60.6077    2.0769   60.6113    2.0858   -0.0000   -0.0000
  0.680   60.5913    1.9216   60.4377    2.1212   60.4568    2.1156   60.5135    1.8932   60.7007    2.1061   60.7043    2.1150   -0.0000   -0.0000
  0.690   60.6858    1.9493   60.5311    2.1501   60.5503    2.1445   60.6079    1.9211   60.7953    2.1355   60.7989    2.1445   -0.0000   -0.0000
  0.700   60.7819    1.9773   60.6263    2.1793   60.6454    2.1736   60.7039    1.9491   60.8917    2.1653   60.8953    2.1743   -0.0000   -0.0000
  0.710   60.8797    2.0055   60.7231    2.2087   60.7423    2.2031   60.8017    1.9775   60.9898    2.1954   60.9933    2.2044   -0.0000   -0.0000
  0.720   60.9793    2.0340   60.8216    2.2385   60.8408    2.2328   60.9011    2.0062   61.0895    2.2258   61.0931    2.2348   -0.0000   -0.0000
  0.730   61.0806    2.0628   60.9219    2.2686   60.9411    2.2629   61.0024    2.0351   61.1911    2.2565   61.1947    2.2655   -0.0000   -0.0000
  0.740   61.1836    2.0920   61.0239    2.2989   61.0431    2.2932   61.1053    2.0643   61.2944    2.2875   61.2980    2.2966   -0.0000   -0.0000
  0.750   61.2884    2.1214   61.1276    2.3296   61.1469    2.3239   61.2101    2.0939   61.3994    2.3188   61.4030    2.3279   -0.0000   -0.0000
  0.760   61.3950    2.1511   61.2332    2.3607   61.2524    2.3549   61.3166    2.1237   61.5063    2.3505   61.5099    2.3596   -0.0000   -0.0000
  0.770   61.5034    2.1811   61.3405    2.3920   61.3597    2.3863   61.4249    2.1539   61.6150    2.3825   61.6186    2.3916   -0.0000   -0.0000
  0.780   61.6137    2.2115   61.4496    2.4237   61.4689    2.4179   61.5351    2.1843   61.7255    2.4148   61.7291    2.4240   -0.0000   -0.0000
  0.790   61.7258    2.2422   61.5605    2.4557   61.5798    2.4500   61.6471    2.2151   61.8379    2.4475   61.8415    2.4567   -0.0000   -0.0000
  0.800   61.8397    2.2732   61.6733    2.4881   61.6926    2.4823   61.7609    2.2463   61.9521    2.4805   61.9557    2.4898   -0.0000   -0.0000
  0.810   61.9555    2.3045   61.7880    2.5209   61.8073    2.5151   61.8767    2.2778   62.0682    2.5139   62.0719    2.5232   -0.0000   -0.0000
  0.820   62.0732    2.3363   61.9045    2.5540   61.9239    2.5482   61.9943    2.3096   62.1863    2.5477   62.1899    2.5570   -0.0000   -0.0000
  0.830   62.1929    2.3683   62.0229    2.5875   62.0423    2.5816   62.1138    2.3418   62.3062    2.5819   62.3098    2.5912   -0.0000   -0.0000
  0.840   62.3145    2.4007   62.1433    2.6213   62.1627    2.6155   62.2353    2.3743   62.4281    2.6164   62.4318    2.6258   -0.0000   -0.0000
  0.850   62.4380    2.4336   62.2656    2.6556   62.2850    2.6497   62.3588    2.4073   62.5520    2.6514   62.5556    2.6607   -0.0000   -0.0000
  0.860   62.5635    2.4667   62.3898    2.6902   62.4092    2.6844   62.4842    2.4406   62.6778    2.6868   62.6815    2.6961   -0.0000   -0.0000
  0.870   62.6910    2.5003   62.5161    2.7253   62.5355    2.7194   62.6116    2.4743   62.8057    2.7225   62.8094    2.7319   -0.0000   -0.0000
  0.880   62.8206    2.5343   62.6443    2.7608   62.6638    2.7549   62.7411    2.5084   62.9356    2.7587   62.9393    2.7681   -0.0000   -0.0000
  0.890   62.9522    2.5686   62.7745    2.7967   62.7940    2.7908   62.8726    2.5428   63.0675    2.7954   63.0712    2.8048   -0.0000   -0.0000
  0.900   63.0859    2.6034   62.9069    2.8330   62.9264    2.8271   63.0061    2.5778   63.2016    2.8324   63.2053    2.8419   -0.0000   -0.0000
  0.910   63.2216    2.6386   63.0412    2.8698   63.0608    2.8638   63.1418    2.6131   63.3377    2.8700   63.3414    2.8794   -0.0000   -0.0000
  0.920   63.3595    2.6743   63.1777    2.9070   63.1973    2.9010   63.2796    2.6489   63.4760    2.9080   63.4797    2.9175   -0.0000   -0.0000
  0.930   63.4995    2.7104   63.3163    2.9447   63.3359    2.9387   63.4195    2.6851   63.6164    2.9464   63.6201    2.9559   -0.0000   -0.0000
  0.940   63.6417    2.7469   63.4571    2.9828   63.4767    2.9768   63.5616    2.7217   63.7590    2.9854   63.7627    2.9949   -0.0000   -0.0000
  0.950   63.7861    2.7839   63.6000    3.0215   63.6196    3.0155   63.7059    2.7589   63.9037    3.0248   63.9075    3.0344   -0.0000   -0.0000
  0.960   63.9327    2.8214   63.7451    3.0606   63.7647    3.0546   63.8524    2.7964   64.0508    3.0647   64.0545    3.0743   -0.0000   -0.0000
  0.970   64.0816    2.8593   63.8924    3.1002   63.9121    3.0942   64.0011    2.8345   64.2000    3.1052   64.2038    3.1148   -0.0000   -0.0000
  0.980   64.2327    2.8977   64.0420    3.1404   64.0617    3.1343   64.1521    2.8731   64.3516    3.1461   64.3554    3.1558   -0.0000   -0.0000
  0.990   64.3861    2.9367   64.1939    3.1810   64.2136    3.1750   64.3054    2.9122   64.5055    3.1876   64.5093    3.1973   -0.0000   -0.0000
  1.000   64.5419    2.9761   64.3480    3.2222   64.3678    3.2162   64.4611    2.9517   64.6617    3.2297   64.6655    3.2394   -0.0000   -0.0000
  1.010   64.7000    3.0161   64.5046    3.2640   64.5243    3.2579   64.6191    2.9919   64.8203    3.2723   64.8241    3.2820   -0.0000   -0.0000
  1.020   64.8606    3.0566   64.6634    3.3063   64.6832    3.3002   64.7795    3.0325   64.9812    3.3155   64.9851    3.3252   -0.0000   -0.0000
  1.030   65.0235    3.0977   64.8247    3.3492   64.8445    3.3430   64.9423    3.0737   65.1447    3.3593   65.1485    3.3690   -0.0000   -0.0000
  1.040   65.1889    3.1393   64.9884    3.3926   65.0083    3.3865   65.1076    3.1155   65.3105    3.4036   65.3144    3.4134   -0.0000   -0.0000
  1.050   65.3568    3.1815   65.1545    3.4367   65.1744    3.4305   65.2754    3.1578   65.4789    3.4486   65.4828    3.4584   -0.0000   -0.0000
  1.060   65.5272    3.2243   65.3232    3.4814   65.3431    3.4752   65.4457    3.2007   65.6498    3.4942   65.6537    3.5040   -0.0000   -0.0000
  1.070   65.7002    3.2676   65.4943    3.5266   65.5143    3.5205   65.6185    3.2442   65.8233    3.5405   65.8272    3.5503   -0.0000   -0.0000
  1.080   65.8757    3.3116   65.6680    3.5726   65.6880    3.5664   65.7939    3.2883   65.9993    3.5873   66.0033    3.5972   -0.0000   -0.0000
  1.090   66.0539    3.3562   65.8443    3.6191   65.8644    3.6129   65.9720    3.3331   66.1780    3.6349   66.1820    3.6448   -0.0000   -0.0000
  1.100   66.2347    3.4015   66.0233    3.6664   66.0433    3.6602   66.1527    3.3785   66.3594    3.6831   66.3633    3.6930   -0.0000   -0.0000
  1.110   66.4182    3.4474   66.2049    3.7143   66.2250    3.7081   66.3360    3.4246   66.5434    3.7321   66.5474    3.7420   -0.0000   -0.0000
  1.120   66.6045    3.4939   66.3892    3.7629   66.4093    3.7567   66.5222    3.4713   66.7302    3.7817   66.7343    3.7917   -0.0000   -0.0000
  1.130   66.7935    3.5412   66.5762    3.8123   66.5964    3.8060   66.7111    3.5187   66.9198    3.8321   66.9239    3.8421   -0.0000   -0.0000
  1.140   66.9853    3.5892   66.7660    3.8623   66.7862    3.8560   66.9028    3.5668   67.1122    3.8833   67.1163    3.8932   -0.0000   -0.0000
  1.150   67.1800    3.6378   66.9586    3.9131   66.9789    3.9068   67.0973    3.6156   67.3075    3.9351   67.3116    3.9451   -0.0000   -0.0000
  1.160   67.3776    3.6872   67.1541    3.9647   67.1744    3.9583   67.2948    3.6652   67.5057    3.9878   67.5098    3.9978   -0.0000   -0.0000
  1.170   67.5781    3.7374   67.3525    4.0170   67.3728    4.0107   67.4952    3.7155   67.7068    4.0413   67.7109    4.0513   -0.0000   -0.0000
  1.180   67.7816    3.7883   67.5538    4.0702   67.5742    4.0638   67.6985    3.7666   67.9109    4.0956   67.9150    4.1056   -0.0000   -0.0000
  1.190   67.9881    3.8400   67.7581    4.1241   67.7785    4.1177   67.9049    3.8185   68.1180    4.1507   68.1222    4.1608   -0.0000   -0.0000
  1.200   68.1977    3.8925   67.9654    4.1789   67.9859    4.1725   68.1143    3.8712   68.3282    4.2067   68.3324    4.2168   -0.0000   -0.0000
  1.210   68.4104    3.9459   68.1758    4.2345   68.1963    4.2281   68.3269    3.9247   68.5416    4.2635   68.5458    4.2736   -0.0000   -0.0000
  1.220   68.6262    4.0000   68.3893    4.2910   68.4098    4.2846   68.5426    3.9791   68.7581    4.3213   68.7623    4.3314   -0.0000   -0.0000
  1.230   68.8453    4.0551   68.6060    4.3485   68.6266    4.3420   68.7615    4.0343   68.9778    4.3800   68.9821    4.3901   -0.0000   -0.0000
  1.240   69.0676    4.1110   68.8259    4.4068   68.8465    4.4003   68.9837    4.0904   69.2008    4.4396   69.2051    4.4497   -0.0000   -0.0000
  1.250   69.2932    4.1678   69.0490    4.4660   69.0697    4.4596   69.2092    4.1474   69.4271    4.5002   69.4314    4.5103   -0.0000   -0.0000
  1.260   69.5222    4.2256   69.2755    4.5263   69.2962    4.5198   69.4381    4.2054   69.6568    4.5618   69.6611    4.5719   -0.0000   -0.0000
  1.270   69.7546    4.2843   69.5054    4.5875   69.5261    4.5810   69.6704    4.2643   69.8899    4.6243   69.8943    4.6345   -0.0000   -0.0000
  1.280   69.9905    4.3440   69.7386    4.6497   69.7594    4.6432   69.9061    4.3242   70.1265    4.6880   70.1309    4.6982   -0.0001   -0.0000
  1.290   70.2299    4.4046   69.9754    4.7129   69.9962    4.7064   70.1454    4.3851   70.3666    4.7526   70.3711    4.7628   -0.0001   -0.0000
  1.300   70.4729    4.4663   70.2157    4.7772   70.2366    4.7707   70.3882    4.4470   70.6104    4.8184   70.6148    4.8286   -0.0001   -0.0000
  1.310   70.7195    4.5291   70.4595    4.8426   70.4805    4.8361   70.6347    4.5099   70.8578    4.8853   70.8623    4.8955   -0.0001   -0.0000
  1.320   70.9698    4.5929   70.7070    4.9091   70.7280    4.9025   70.8849    4.5740   71.1089    4.9533   71.1134    4.9636   -0.0001   -0.0000
  1.330   71.2239    4.6578   70.9583    4.9768   70.9793    4.9702   71.1389    4.6391   71.3637    5.0225   71.3683    5.0328   -0.0001   -0.0000
  1.340   71.4818    4.7239   71.2133    5.0456   71.2344    5.0389   71.3966    4.7054   71.6224    5.0929   71.6270    5.1032   -0.0001   -0.0000
  1.350   71.7437    4.7911   71.4721    5.1156   71.4933    5.1089   71.6583    4.7729   71.8850    5.1645   71.8897    5.1748   -0.0001   -0.0000
  1.360   72.0094    4.8594   71.7348    5.1868   71.7560    5.1801   71.9240    4.8415   72.1516    5.2374   72.1563    5.2477   -0.0001   -0.0000
  1.370   72.2792    4.9290   72.0015    5.2593   72.0228    5.2526   72.1936    4.9114   72.4223    5.3116   72.4270    5.3219   -0.0002   -0.0000
  1.380   72.5531    4.9999   72.2723    5.3330   72.2936    5.3264   72.4674    4.9825   72.6970    5.3871   72.7018    5.3974   -0.0002   -0.0000
  1.390   72.8311    5.0720   72.5471    5.4081   72.5685    5.4014   72.7453    5.0549   72.9759    5.4640   72.9807    5.4743   -0.0002   -0.0000
  1.400   73.1134    5.1455   72.8261    5.4846   72.8475    5.4779   73.0275    5.1286   73.2591    5.5422   73.2639    5.5526   -0.0002   -0.0000
  1.410   73.4000    5.2203   73.1094    5.5624   73.1309    5.5557   73.3139    5.2037   73.5465    5.6219   73.5515    5.6323   -0.0002   -0.0000
  1.420   73.6910    5.2964   73.3970    5.6417   73.4185    5.6349   73.6048    5.2801   73.8384    5.7031   73.8434    5.7135   -0.0003   -0.0000
  1.430   73.9865    5.3740   73.6890    5.7224   73.7105    5.7157   73.9002    5.3580   74.1348    5.7858   74.1398    5.7962   -0.0003   -0.0000
  1.440   74.2865    5.4531   73.9854    5.8046   74.0071    5.7979   74.2001    5.4374   74.4358    5.8700   74.4408    5.8804   -0.0003   -0.0000
  1.450   74.5912    5.5336   74.2865    5.8884   74.3082    5.8817   74.5046    5.5183   74.7414    5.9559   74.7465    5.9663   -0.0004   -0.0000
  1.460   74.9005    5.6157   74.5922    5.9738   74.6139    5.9670   74.8139    5.6007   75.0517    6.0434   75.0569    6.0537   -0.0004   -0.0000
  1.470   75.2147    5.6994   74.9026    6.0608   74.9244    6.0540   75.1280    5.6847   75.3669    6.1325   75.3721    6.1429   -0.0005   -0.0000
  1.480   75.5338    5.7847   75.2178    6.1495   75.2397    6.1427   75.4470    5.7703   75.6870    6.2234   75.6922    6.2338   -0.0005   -0.0000
  1.490   75.8579    5.8717   75.5380    6.2399   75.5599    6.2330   75.7709    5.8576   76.0120    6.3160   76.0174    6.3264   -0.0006   -0.0000
  1.500   76.1871    5.9604   75.8632    6.3320   75.8851    6.3252   76.1000    5.9467   76.3422    6.4105   76.3476    6.4209   -0.0006   -0.0000
  1.510   76.5214    6.0508   76.1934    6.4260   76.2155    6.4191   76.4343    6.0375   76.6776    6.5069   76.6831    6.5173   -0.0007   -0.0000
  1.520   76.8611    6.1431   76.5289    6.5218   76.5510    6.5150   76.7738    6.1302   77.0183    6.6052   77.0238    6.6155   -0.0008   -0.0000
  1.530   77.2061    6.2372   76.8696    6.6196   76.8918    6.6127   77.1188    6.2247   77.3644    6.7054   77.3700    6.7158   -0.0009   -0.0000
  1.540   77.5566    6.3332   77.2158    6.7193   77.2380    6.7124   77.4692    6.3211   77.7160    6.8077   77.7216    6.8181   -0.0010   -0.0000
  1.550   77.9127    6.4312   77.5675    6.8211   77.5898    6.8142   77.8253    6.4196   78.0732    6.9121   78.0789    6.9225   -0.0011   -0.0000
  1.560   78.2746    6.5313   77.9248    6.9250   77.9471    6.9180   78.1870    6.5200   78.4362    7.0187   78.4420    7.0290   -0.0012   -0.0000
  1.570   78.6422    6.6334   78.2878    7.0309   78.3102    7.0240   78.5546    6.6226   78.8050    7.1275   78.8108    7.1378   -0.0014   -0.0000
  1.580   79.0159    6.7377   78.6567    7.1392   78.6792    7.1322   78.9282    6.7274   79.1797    7.2385   79.1857    7.2489   -0.0015   -0.0000
  1.590   79.3955    6.8442   79.0315    7.2496   79.0541    7.2427   79.3078    6.8344   79.5606    7.3519   79.5666    7.3623   -0.0017   -0.0000
  1.600   79.7814    6.9529   79.4124    7.3625   79.4351    7.3555   79.6937    6.9436   79.9476    7.4678   79.9537    7.4781   -0.0019   -0.0000
  1.610   80.1736    7.0641   79.7996    7.4777   79.8223    7.4707   80.0858    7.0553   80.3410    7.5861   80.3472    7.5964   -0.0021   -0.0000
  1.620   80.5723    7.1776   80.1930    7.5954   80.2158    7.5884   80.4845    7.1693   80.7409    7.7070   80.7472    7.7173   -0.0023   -0.0000
  1.630   80.9776    7.2936   80.5930    7.7157   80.6158    7.7087   80.8897    7.2859   81.1474    7.8306   81.1538    7.8409   -0.0025   -0.0000
  1.640   81.3896    7.4122   80.9996    7.8386   81.0225    7.8315   81.3017    7.4051   81.5606    7.9569   81.5671    7.9671   -0.0028   -0.0000
  1.650   81.8084    7.5335   81.4129    7.9642   81.4359    7.9572   81.7205    7.5269   81.9808    8.0859   81.9873    8.0962   -0.0031   -0.0000
  1.660   82.2343    7.6575   81.8331    8.0926   81.8561    8.0856   82.1464    7.6515   82.4079    8.2179   82.4146    8.2282   -0.0034   -0.0000
  1.670   82.6674    7.7842   82.2603    8.2239   82.2835    8.2169   82.5795    7.7789   82.8423    8.3529   82.8491    8.3631   -0.0038   -0.0000
  1.680   83.1078    7.9139   82.6948    8.3582   82.7180    8.3511   83.0199    7.9093   83.2840    8.4910   83.2909    8.5012   -0.0042   -0.0000
  1.690   83.5557    8.0466   83.1366    8.4955   83.1599    8.4885   83.4679    8.0426   83.7333    8.6322   83.7403    8.6424   -0.0046   -0.0000
  1.700   84.0113    8.1824   83.5860    8.6361   83.6093    8.6290   83.9235    8.1791   84.1902    8.7768   84.1973    8.7869   -0.0051   -0.0000
  1.710   84.4748    8.3214   84.0430    8.7798   84.0664    8.7728   84.3869    8.3188   84.6550    8.9247   84.6622    8.9348   -0.0056   -0.0000
  1.720   84.9462    8.4636   84.5079    8.9270   84.5314    8.9199   84.8584    8.4618   85.1278    9.0761   85.1352    9.0862   -0.0061   -0.0000
  1.730   85.4258    8.6093   84.9808    9.0776   85.0044    9.0705   85.3382    8.6083   85.6088    9.2312   85.6163    9.2412   -0.0068   -0.0000
  1.740   85.9139    8.7585   85.4620    9.2319   85.4856    9.2247   85.8263    8.7583   86.0983    9.3899   86.1059    9.3999   -0.0075   -0.0000
  1.750   86.4105    8.9113   85.9516    9.3898   85.9753    9.3827   86.3230    8.9120   86.5963    9.5526   86.6041    9.5625   -0.0082   -0.0000
  1.760   86.9159    9.0679   86.4498    9.5516   86.4736    9.5445   86.8285    9.0694   87.1032    9.7192   87.1111    9.7291   -0.0090   -0.0000
  1.770   87.4303    9.2283   86.9568    9.7173   86.9806    9.7102   87.3430    9.2308   87.6190    9.8899   87.6271    9.8998   -0.0099   -0.0000
  1.780   87.9539    9.3928   87.4728    9.8872   87.4967    9.8800   87.8668    9.3962   88.1441   10.0649   88.1523   10.0747   -0.0109   -0.0000
  1.790   88.4870    9.5614   87.9980   10.0613   88.0221   10.0541   88.4000    9.5658   88.6786   10.2443   88.6870   10.2541   -0.0120   -0.0000
  1.800   89.0297    9.7343   88.5328   10.2397   88.5569   10.2326   88.9428    9.7397   89.2228   10.4283   89.2314   10.4380   -0.0131   -0.0001
  1.810   89.5823    9.9117   89.0772   10.4227   89.1013   10.4156   89.4956    9.9181   89.7769   10.6169   89.7856   10.6266   -0.0144   -0.0001
  1.820   90.1450   10.0936   89.6315   10.6104   89.6557   10.6033   90.0585   10.1011   90.3412   10.8105   90.3501   10.8201   -0.0158   -0.0001
  1.830   90.7181   10.2803   90.1960   10.8030   90.2203   10.7959   90.6319   10.2890   90.9158   11.0091   90.9249   11.0187   -0.0173   -0.0001
  1.840   91.3019   10.4720   90.7709   11.0006   90.7953   10.9934   91.2159   10.4819   91.5011   11.2130   91.5104   11.2225   -0.0190   -0.0001
  1.850   91.8966   10.6688   91.3565   11.2034   91.3810   11.1963   91.8109   10.6799   92.0974   11.4223   92.1069   11.4318   -0.0208   -0.0001
  1.860   92.5025   10.8709   91.9530   11.4116   91.9776   11.4045   92.4170   10.8832   92.7048   11.6372   92.7146   11.6466   -0.0227   -0.0001
  1.870   93.1199   11.0784   92.5608   11.6254   92.5854   11.6183   93.0347   11.0922   93.3238   11.8580   93.3337   11.8673   -0.0249   -0.0001
  1.880   93.7490   11.2917   93.1801   11.8450   93.2048   11.8379   93.6642   11.3068   93.9545   12.0848   93.9647   12.0940   -0.0272   -0.0001
  1.890   94.3903   11.5109   93.8111   12.0707   93.8360   12.0635   94.3058   11.5275   94.5974   12.3179   94.6077   12.3270   -0.0297   -0.0001
  1.900   95.0440   11.7362   94.4544   12.3026   94.4793   12.2954   94.9598   11.7543   95.2526   12.5575   95.2632   12.5666   -0.0325   -0.0001
  1.910   95.7104   11.9680   95.1100   12.5409   95.1350   12.5338   95.6266   11.9876   95.9206   12.8039   95.9315   12.8129   -0.0354   -0.0001
  1.920   96.3898   12.2063   95.7784   12.7860   95.8035   12.7789   96.3065   12.2276   96.6016   13.0573   96.6128   13.0662   -0.0387   -0.0002
  1.930   97.0827   12.4515   96.4600   13.0381   96.4851   13.0310   96.9999   12.4746   97.2961   13.3180   97.3075   13.3268   -0.0422   -0.0002
  1.940   97.7894   12.7039   97.1550   13.2974   97.1802   13.2903   97.7071   12.7287   98.0044   13.5863   98.0161   13.5949   -0.0460   -0.0002
  1.950   98.5103   12.9637   97.8638   13.5643   97.8891   13.5572   98.4285   12.9904   98.7269   13.8624   98.7389   13.8710   -0.0501   -0.0002
  1.960   99.2458   13.2312   98.5869   13.8391   98.6122   13.8320   99.1645   13.2599   99.4639   14.1468   99.4762   14.1553   -0.0545   -0.0002
  1.970   99.9962   13.5067   99.3245   14.1220   99.3499   14.1149   99.9155   13.5375  100.2159   14.4397  100.2285   14.4480   -0.0594   -0.0003
  1.980  100.7620   13.7907  100.0772   14.4133  100.1027   14.4062  100.6819   13.8235  100.9832   14.7415  100.9962   14.7497   -0.0646   -0.0003
  1.990  101.5437   14.0833  100.8452   14.7136  100.8708   14.7065  101.4642   14.1184  101.7664   15.0525  101.7797   15.0606   -0.0702   -0.0003
  2.000  102.3416   14.3851  101.6292   15.0230  101.6548   15.0159  102.2628   14.4225  102.5658   15.3732  102.5795   15.3811   -0.0763   -0.0003
  2.010  103.1563   14.6963  102.4295   15.3420  102.4552   15.3349  103.0783   14.7362  103.3820   15.7039  103.3961   15.7117   -0.0829   -0.0004
  2.020  103.9883   15.0174  103.2465   15.6710  103.2723   15.6639  103.9110   15.0598  104.2154   16.0450  104.2298   16.0527   -0.0900   -0.0004
  2.030  104.8380   15.3487  104.0809   16.0104  104.1067   16.0034  104.7615   15.3938  105.0665   16.3971  105.0814   16.4046   -0.0977   -0.0004
  2.040  105.7059   15.6908  104.9330   16.3606  104.9589   16.3536  105.6304   15.7387  105.9358   16.7606  105.9511   16.7679   -0.1060   -0.0005
  2.050  106.5928   16.0441  105.8035   16.7222  105.8295   16.7152  106.5181   16.0950  106.8239   17.1359  106.8397   17.1431   -0.1149   -0.0005
  2.060  107.4990   16.4091  106.6928   17.0957  106.7188   17.0887  107.4253   16.4631  107.7314   17.5236  107.7476   17.5307   -0.1245   -0.0006
  2.070  108.4252   16.7864  107.6015   17.4814  107.6276   17.4745  108.3525   16.8435  108.6588   17.9244  108.6755   17.9313   -0.1348   -0.0006
  2.080  109.3720   17.1764  108.5302   17.8801  108.5564   17.8732  109.3003   17.2369  109.6067   18.3386  109.6240   18.3453   -0.1460   -0.0007
  2.090  110.3400   17.5798  109.4796   18.2923  109.5058   18.2854  110.2695   17.6439  110.5758   18.7671  110.5936   18.7736   -0.1580   -0.0007
  2.100  111.3299   17.9972  110.4502   18.7186  110.4765   18.7117  111.2606   18.0650  111.5666   19.2103  111.5850   19.2167   -0.1709   -0.0008
  2.110  112.3424   18.4293  111.4427   19.1596  111.4691   19.1527  112.2743   18.5010  112.5800   19.6691  112.5990   19.6753   -0.1848   -0.0009
  2.120  113.3782   18.8767  112.4579   19.6161  112.4843   19.6093  113.3114   18.9525  113.6166   20.1442  113.6361   20.1501   -0.1998   -0.0009
  2.130  114.4381   19.3401  113.4963   20.0888  113.5228   20.0820  114.3727   19.4202  114.6770   20.6363  114.6972   20.6420   -0.2159   -0.0010
  2.140  115.5228   19.8204  114.5588   20.5784  114.5853   20.5716  115.4588   19.9051  115.7622   21.1462  115.7831   21.1517   -0.2333   -0.0011
  2.150  116.6331   20.3184  115.6462   21.0858  115.6727   21.0791  116.5706   20.4079  116.8728   21.6749  116.8944   21.6801   -0.2519   -0.0012
  2.160  117.7699   20.8350  116.7591   21.6119  116.7857   21.6052  117.7089   20.9295  118.0097   22.2232  118.0321   22.2282   -0.2721   -0.0013
  2.170  118.9340   21.3710  117.8986   22.1576  117.9251   22.1509  118.8747   21.4708  119.1738   22.7922  119.1970   22.7970   -0.2937   -0.0014
  2.180  120.1263   21.9276  119.0653   22.7238  119.0919   22.7171  120.0687   22.0329  120.3659   23.3829  120.3899   23.3874   -0.3171   -0.0015
  2.190  121.3479   22.5056  120.2603   23.3116  120.2869   23.3050  121.2921   22.6168  121.5870   23.9964  121.6118   24.0006   -0.3424   -0.0016
  2.200  122.5997   23.1063  121.4844   23.9222  121.5110   23.9156  122.5457   23.2238  122.8380   24.6338  122.8638   24.6378   -0.3698   -0.0018
  2.210  123.8826   23.7309  122.7387   24.5566  122.7653   24.5501  123.8306   23.8549  124.1199   25.2966  124.1466   25.3002   -0.3994   -0.0019
  2.220  125.1978   24.3806  124.0242   25.2162  124.0508   25.2097  125.1479   24.5115  125.4338   25.9859  125.4615   25.9892   -0.4316   -0.0021
  2.230  126.5465   25.0568  125.3419   25.9023  125.3684   25.8958  126.4986   25.1949  126.7807   26.7032  126.8095   26.7063   -0.4666   -0.0022
  2.240  127.9296   25.7608  126.6928   26.6164  126.7194   26.6099  127.8840   25.9067  128.1618   27.4501  128.1917   27.4529   -0.5049   -0.0024
  2.250  129.3486   26.4944  128.0783   27.3599  128.1048   27.3535  129.3052   26.6484  129.5782   28.2282  129.6093   28.2306   -0.5468   -0.0026
  2.260  130.8045   27.2591  129.4994   28.1345  129.5258   28.1281  130.7636   27.4217  131.0312   29.0392  131.0635   29.0413   -0.5929   -0.0028
  2.270  132.2988   28.0567  130.9573   28.9419  130.9837   28.9356  132.2603   28.2284  132.5219   29.8850  132.5556   29.8868   -0.6439   -0.0031
  2.280  133.8327   28.8890  132.4534   29.7840  132.4797   29.7777  133.7968   29.0704  134.0518   30.7676  134.0868   30.7691   -0.7003   -0.0033
  2.290  135.4078   29.7582  133.9891   30.6629  134.0153   30.6566  135.3745   29.9499  135.6221   31.6892  135.6586   31.6903   -0.7632   -0.0036
  2.300  137.0254   30.6664  135.5655   31.5805  135.5917   31.5743  136.9948   30.8689  137.2343   32.6519  137.2723   32.6527   -0.8336   -0.0039
  2.310  138.6871   31.6159  137.1844   32.5394  137.2104   32.5332  138.6593   31.8299  138.8897   33.6584  138.9294   33.6589   -0.9127   -0.0043
  2.320  140.3945   32.6093  138.8470   33.5418  138.8729   33.5356  140.3696   32.8355  140.5900   34.7112  140.6314   34.7113   -1.0021   -0.0046
  2.330  142.1493   33.6492  140.5550   34.5905  140.5807   34.5843  142.1273   33.8884  142.3367   35.8133  142.3800   35.8130   -1.1036   -0.0050
  2.340  143.9530   34.7385  142.3099   35.6883  142.3354   35.6821  143.9341   34.9916  144.1314   36.9675  144.1766   36.9669   -1.2193   -0.0055
  2.350  145.8077   35.8805  144.1135   36.8382  144.1388   36.8321  145.7918   36.1482  145.9757   38.1773  146.0229   38.1763   -1.3518   -0.0060
  2.360  147.7149   37.0784  145.9673   38.0436  145.9924   38.0375  147.7022   37.3618  147.8713   39.4462  147.9208   39.4448   -1.5040   -0.0065
  2.370  149.6768   38.3359  147.8733   39.3081  147.8982   39.3020  149.6672   38.6359  149.8201   40.7779  149.8719   40.7763   -1.6795   -0.0072
  2.380  151.6951   39.6569  149.8331   40.6354  149.8577   40.6293  151.6887   39.9747  151.8238   42.1768  151.8780   42.1748   -1.8822   -0.0078
  2.390  153.7720   41.0457  151.8487   42.0298  151.8730   42.0236  153.7688   41.3825  153.8841   43.6471  153.9410   43.6448   -2.1171   -0.0086
  2.400  155.9095   42.5069  153.9220   43.4956  153.9460   43.4894  155.9094   42.8639  156.0031   45.1938  156.0628   45.1912   -2.3894   -0.0095
  2.410  158.1097   44.0456  156.0549   45.0379  156.0785   45.0316  158.1127   44.4241  158.1826   46.8221  158.2452   46.8192   -2.7057   -0.0105
  2.420  160.3747   45.6670  158.2494   46.6617  158.2726   46.6554  160.3808   46.0686  160.4245   48.5376  160.4903   48.5345   -3.0730   -0.0116
  2.430  162.7069   47.3770  160.5075   48.3729  160.5302   48.3665  162.7158   47.8034  162.7307   50.3465  162.7999   50.3432   -3.4997   -0.0129
  2.440  165.1083   49.1822  162.8312   50.1776  162.8534   50.1710  165.1200   49.6350  165.1032   52.2554  165.1759   52.2520   -3.9950   -0.0144
  2.450  167.5813   51.0893  165.2225   52.0825  165.2443   52.0758  167.5955   51.5704  167.5437   54.2717  167.6203   54.2681   -4.5694   -0.0161
  2.460  170.1280   53.1060  167.6835   54.0950  167.7047   54.0881  170.1444   53.6175  170.0541   56.4032  170.1348   56.3996   -5.2345   -0.0180
  2.470  172.7507   55.2405  170.2161   56.2230  170.2366   56.2159  172.7689   55.7846  172.6362   58.6584  172.7212   58.6549   -6.0034   -0.0202
  2.480  175.4515   57.5018  172.8221   58.4751  172.8419   58.4678  175.4710   58.0808  175.2915   61.0468  175.3813   61.0434   -6.8903   -0.0227
  2.490  178.2324   59.8996  175.5034   60.8609  175.5225   60.8532  178.2527   60.5163  178.0215   63.5784  178.1163   63.5754   -7.9107   -0.0256
  2.500  181.0953   62.4447  178.2616   63.3906  178.2798   63.3825  181.1156   63.1018  180.8275   66.2645  180.9277   66.2619   -9.0816   -0.0290
  2.510  184.0419   65.1489  181.0981   66.0754  181.1154   66.0669  184.0614   65.8494  183.7105   69.1172  183.8164   69.1151  -10.4210   -0.0328
  2.520  187.0738   68.0249  184.0141   68.9278  184.0305   68.9187  187.0914   68.7722  186.6709   72.1497  186.7830   72.1484  -11.9483   -0.0372
  2.530  190.1920   71.0868  187.0104   71.9610  187.0258   71.9514  190.2064   71.8845  189.7090   75.3765  189.8277   75.3762  -13.6838   -0.0422
  2.540  193.3972   74.3500  190.0875   75.1899  190.1018   75.1796  193.4070   75.2020  192.8245   78.8134  192.9503   78.8144  -15.6487   -0.0480
  2.550  196.6897   77.8313  193.2452   78.6306  193.2583   78.6194  196.6928   78.7419  196.0161   82.4777  196.1495   82.4803  -17.8649   -0.0545
  2.560  200.0688   81.5493  196.4828   82.3007  196.4946   82.2885  200.0632   82.5231  199.2820   86.3885  199.4235   86.3930  -20.3546   -0.0620
  2.570  203.5331   85.5243  199.7985   86.2195  199.8089   86.2062  203.5162   86.5662  202.6190   90.5663  202.7694   90.5733  -23.1401   -0.0705
  2.580  207.0803   89.7785  203.1897   90.4082  203.1987   90.3936  207.0488   90.8940  206.0229   95.0339  206.1827   95.0438  -26.2433   -0.0802
  2.590  210.7063   94.3365  206.6525   94.8900  206.6598   94.8739  210.6567   95.5313  209.4878   99.8159  209.6576   99.8294  -29.6853   -0.0911
  2.600  214.4059   99.2249  210.1811   99.6903  210.1869   99.6723  214.3336  100.5053  213.0058  104.9394  213.1864  104.9570  -33.4860   -0.1034
  2.610  218.1715  104.4732  213.7682  104.8367  213.7722  104.8167  218.0713  105.8460  216.5665  110.4336  216.7587  110.4564  -37.6638   -0.1172
  2.620  221.9931  110.1135  217.4039  110.3597  217.4062  110.3373  221.8588  111.5857  220.1571  116.3307  220.3616  116.3595  -42.2344   -0.1327
  2.630  225.8576  116.1808  221.0755  116.2922  221.0759  116.2670  225.6819  117.7601  223.7608  122.6652  223.9785  122.7011  -47.2112   -0.1501
  2.640  229.7484  122.7133  224.7667  122.6702  224.7652  122.6418  229.5227  124.4078  227.3570  129.4745  227.5888  129.5190  -52.6042   -0.1694
  2.650  233.6442  129.7525  228.4572  129.5326  228.4538  129.5005  233.3582  131.5705  230.9201  136.7989  231.1667  136.8534  -58.4200   -0.1909
  2.660  237.5184  137.3431  232.1213  136.9213  232.1161  136.8850  237.1600  139.2933  234.4182  144.6813  234.6805  144.7477  -64.6612   -0.2146
  2.670  241.3377  145.5333  235.7274  144.8815  235.7205  144.8404  240.8927  147.6245  237.8125  153.1673  238.0913  153.2476  -71.3266   -0.2409
  2.680  245.0608  154.3741  239.2365  153.4610  239.2280  153.4144  244.5127  156.6152  241.0558  162.3045  241.3518  162.4011  -78.4112   -0.2697
  2.690  248.6373  163.9197  242.6007  162.7104  242.5910  162.6574  247.9666  166.3191  244.0907  172.1421  244.4044  172.2578  -85.9068   -0.3012
  2.700  252.0051  174.2262  245.7620  172.6821  245.7514  172.6219  251.1892  176.7915  246.8481  182.7300  247.1800  182.8680  -93.8024   -0.3357
  2.710  255.0892  185.3507  248.6496  183.4295  248.6388  183.3613  254.1018  188.0885  249.2453  194.1170  249.5955  194.2810 -102.0859   -0.3732
  2.720  257.7987  197.3499  251.1788  195.0060  251.1684  194.9287  256.6096  200.2649  251.1842  206.3494  251.5523  206.5435 -110.7460   -0.4139
  2.730  260.0249  210.2779  253.2479  207.4621  253.2391  207.3746  258.5994  213.3720  252.5486  219.4679  252.9338  219.6968 -119.7743   -0.4579
  2.740  261.6385  224.1829  254.7366  220.8435  254.7307  220.7449  259.9373  227.4540  253.2031  233.5041  253.6039  233.7729 -129.1688   -0.5054
  2.750  262.4873  239.1030  255.5030  235.1869  255.5017  235.0761  260.4665  242.5441  252.9907  248.4759  253.4048  248.7903 -138.9377   -0.5565
  2.760  262.3939  255.0608  255.3822  250.5151  255.3875  250.3913  260.0049  258.6580  251.7327  264.3817  252.1564  264.7478 -149.1045   -0.6113
  2.770  261.1548  272.0564  254.1847  266.8307  254.1992  266.6932  258.3451  275.7873  249.2282  281.1932  249.6566  281.6173 -159.7124   -0.6700
  2.780  258.5403  290.0587  251.6962  284.1082  251.7229  283.9568  255.2544  293.8903  245.2562  298.8473  245.6828  299.3357 -170.8311   -0.7327
  2.790  254.2967  308.9949  247.6794  302.2847  247.7220  302.1197  250.4780  312.8815  239.5803  317.2363  239.9966  317.7949 -182.5610   -0.7998
  2.800  248.1517  328.7392  241.8785  321.2491  241.9409  321.0715  243.7453  332.6207  231.9559  336.1984  232.3513  336.8324 -195.0386   -0.8715
  2.810  239.8241  349.1004  234.0272  340.8309  234.1136  340.6428  234.7800  352.9006  222.1419  355.5085  222.5038  356.2216 -208.4388   -0.9481
  2.820  229.0386  369.8103  223.8616  360.7885  223.9764  360.5933  223.3160  373.4367  209.9166  374.8708  210.2301  375.6645 -222.9749   -1.0301
  2.830  215.5462  390.5150  211.1384  380.8012  211.2855  380.6036  209.1191  393.8596  195.0986  393.9152  195.3471  394.7881 -238.8937   -1.1178
  2.840  199.1514  410.7716  195.6590  400.4638  195.8417  400.2700  192.0133  413.7134  177.5708  412.2005  177.7366  413.1474 -256.4656   -1.2121
  2.850  179.7436  430.0535  177.2983  419.2898  177.5185  419.1077  171.9122  432.4634  157.3069  429.2254  157.3720  430.2366 -275.9674   -1.3135
  2.860  157.3307  447.7680  156.0360  436.7253  156.2938  436.5636  148.8510  449.5147  134.3960  444.4499  134.3436  445.5109 -297.6584   -1.4229
  2.870  132.0696  463.2875  131.9868  452.1750  132.2798  452.0432  123.0145  464.2460  109.0627  457.3275  108.8787  458.4191 -321.7485   -1.5411
  2.880  104.2867  475.9963  105.4224  465.0422  105.7454  464.9496   94.7548  476.0549   81.6756  467.3467   81.3499  468.4453 -348.3617   -1.6692
  2.890   74.4824  485.3473   76.7800  474.7807   77.1251  474.7356   64.5921  484.4140   52.7414  474.0772   52.2698  475.1564 -377.4960   -1.8079
  2.900   43.3112  490.9231   46.6507  480.9515   47.0073  480.9601   33.1934  488.9289   22.8822  477.2159   22.2667  478.2483 -408.9845   -1.9582
  2.910   11.5381  492.4911   15.7440  483.2763   16.0999  483.3421    1.3280  489.3881   -7.2068  476.6247   -7.9574  477.5834 -442.4633   -2.1208
  2.920  -20.0294  490.0387  -15.1682  481.6778  -14.8265  481.8006  -30.1972  485.7955  -36.8115  472.3515  -37.6824  473.2126 -477.3504   -2.2962
  2.930  -50.6210  483.7816  -45.3246  476.2948  -45.0101  476.4712  -60.6136  478.3743  -65.2618  464.6309  -66.2332  465.3749 -512.8434   -2.4847
  2.940  -79.5858  474.1371  -74.0503  467.4691  -73.7752  467.6921  -89.2658  467.5424  -91.9921  453.8605  -93.0412  454.4730 -547.9380   -2.6860
  2.950 -106.4600  461.6650 -100.8257  455.7001 -100.6002  455.9599 -115.6719  453.8565 -116.5911  440.5547 -117.6936  441.0270 -581.4714   -2.8997
  2.960 -131.0061  446.9788 -125.3333  441.5728 -125.1649  441.8566 -139.5586  437.9355 -138.8320  425.2800 -139.9637  425.6083 -612.1885   -3.1247
  2.970 -153.2099  430.6417 -147.4700  425.6653 -147.3630  425.9585 -160.8598  420.3705 -158.6742  408.5787 -159.8116  408.7633 -638.8284   -3.3595
  2.980 -173.2204  413.0653 -167.3132  408.4542 -167.2675  408.7408 -179.6713  401.6414 -176.2283  390.8929 -177.3490  390.9372 -660.2223   -3.6021
  2.990 -191.2307  394.4511 -185.0318  390.2444 -185.0418  390.5084 -196.1607  382.0641 -191.6795  372.5110 -192.7615  372.4217 -675.3943   -3.8503
  3.000 -207.3283  374.8215 -200.7608  371.1651 -200.8154  371.3933 -210.4553  361.8046 -205.1841  353.5684 -206.2059  353.3561 -683.6535   -4.1015
  3.010 -221.3965  354.1604 -214.4966  351.2590 -214.5803  351.4437 -222.5635  340.9710 -216.7844  334.1226 -217.7261  333.8035 -684.6669   -4.3531
  3.020 -233.1530  332.5965 -226.0879  330.6280 -226.1845  330.7692 -232.3898  319.7379 -226.4026  314.2722 -227.2490  313.8677 -678.5040   -4.6025
  3.030 -242.3198  310.4967 -235.3432  309.5372 -235.4399  309.6412 -239.8426  298.4143 -233.9275  294.2395 -234.6705  293.7744 -665.6477   -4.8471
  3.040 -248.8005  288.3987 -242.1744  288.3987 -242.2643  288.4750 -244.9482  277.4027 -239.3287  274.3576 -239.9682  273.8566 -646.9705   -5.0849
  3.050 -252.7414  266.8504 -246.6717  267.6637 -246.7536  267.7214 -247.8907  257.0950 -242.7147  254.9846 -243.2573  254.4684 -623.6792   -5.3141
  3.060 -254.4720  246.2767 -249.0820  247.7113 -249.1581  247.7567 -248.9695  237.7866 -244.3142  236.4156 -244.7701  235.9000 -597.2352   -5.5335
  3.070 -254.3991  226.9322 -249.7354  228.7933 -249.8094  228.8295 -248.5281  219.6468 -244.4173  218.8409 -244.7979  218.3367 -569.2593   -5.7427
  3.080 -252.9222  208.9190 -248.9743  211.0347 -249.0499  211.0625 -246.8959  202.7339 -243.3189  202.3484 -243.6354  201.8623 -541.4332   -5.9417
  3.090 -250.3877  192.2311 -247.1098  194.4621 -247.1900  194.4802 -244.3583  187.0274 -241.2850  186.9464 -241.5474  186.4824 -515.4057   -6.1311
  3.100 -247.0750  176.7964 -244.4025  179.0364 -244.4893  179.0426 -241.1468  172.4582 -238.5382  172.5907 -238.7554  172.1509 -492.7126   -6.3122
  3.110 -243.1988  162.5087 -241.0599  164.6800 -241.1542  164.6710 -237.4421  158.9308 -235.2557  159.2063 -235.4354  158.7913 -474.7129   -6.4866
  3.120 -238.9179  149.2468 -237.2403  151.2951 -237.3421  151.2672 -233.3798  146.3386 -231.5734  146.7021 -231.7224  146.3114 -462.5433   -6.6566
  3.130 -234.3446  136.8864 -233.0591  138.7760 -233.1676  138.7251 -229.0581  134.5718 -227.5910  134.9802 -227.7150  134.6127 -457.0881   -6.8246
  3.140 -229.5531  125.3069 -228.5953  127.0166 -228.7085  126.9381 -224.5434  123.5222 -223.3770  123.9419 -223.4808  123.5958 -458.9620   -6.9933
  3.150 -224.5850  114.3947 -223.8963  115.9149 -224.0107  115.8038 -219.8746  113.0868 -218.9723  113.4913 -219.0599  113.1642 -468.5015   -7.1654
  3.160 -219.4538  104.0457 -218.9813  105.3765 -219.0917  105.2277 -215.0656  103.1685 -214.3928  103.5374 -214.4671  103.2262 -485.7647   -7.3440
  3.170 -214.1467   94.1676 -213.8437   95.3174 -213.9430   95.1259 -210.1069   93.6789 -209.6300   93.9963 -209.6928   93.6980 -510.5405   -7.5316
  3.180 -208.6258   84.6822 -208.4525   85.6676 -208.5308   85.4291 -204.9649   84.5396 -204.6512   84.7945 -204.7028   84.5056 -542.3722   -7.7309
  3.190 -202.8275   75.5302 -202.7524   76.3750 -202.7967   76.0869 -199.5801   75.6865 -199.3972   75.8725 -199.4366   75.5902 -580.6011   -7.9443
  3.200 -196.6612   66.6778 -196.6641   67.4125 -196.6579   67.0752 -193.8649   67.0768 -193.7798   67.1927 -193.8045   66.9151 -624.4318   -8.1737
  3.210 -190.0094   58.1292 -190.0849   58.7885 -190.0083   58.4077 -187.7005   58.7006 -187.6799   58.7522 -187.6866   58.4794 -673.0168   -8.4211
  3.220 -182.7322   49.9455 -182.8941   50.5629 -182.7252   50.1523 -180.9393   50.6008 -180.9502   50.6042 -180.9352   50.3382 -725.5422   -8.6877
  3.230 -174.6845   42.2697 -174.9681   42.8680 -174.6861   42.4523 -173.4170   42.9018 -173.4307   42.8865 -173.3916   42.6320 -781.2883   -8.9748
  3.240 -165.7545   35.3524 -166.2140   35.9293 -165.8053   35.5462 -164.9896   35.8408 -164.9898   35.8533 -164.9271   35.6167 -839.6283   -9.2834
  3.250 -155.9343   29.5573 -156.6280   30.0703 -156.0949   29.7688 -155.6048   29.7851 -155.6019   29.8857 -155.5197   29.6729 -899.9355   -9.6141
  3.260 -145.4087   25.3147 -146.3710   25.6767 -145.7410   25.5085 -145.4039   25.1952 -145.4495   25.4414 -145.3554   25.2556 -961.3877   -9.9674
  3.270 -134.6171   22.9977 -135.8270   23.0957 -135.1553   23.0985 -134.8046   22.4988 -134.9926   22.9139 -134.8949   22.7530 *********  -10.3432
  3.280 -124.2131   22.7498 -125.5820   22.4867 -124.9411   22.6662 -124.4758   21.8961 -124.9147   22.4382 -124.8185   22.2953 *********  -10.7408
  3.290 -114.8943   24.3651 -116.2894   23.7021 -115.7453   24.0251 -115.1574   23.2118 -115.9200   23.7722 -115.8241   23.6382 *********  -11.1582
  3.300 -107.1812   27.3180 -108.4715   26.2873 -108.0611   26.6936 -107.4089   25.9173 -108.4956   26.3592 -108.3913   26.2276 *********  -11.5923
  3.310 -101.2769   30.9288 -102.3713   29.6121 -102.0937   30.0390 -101.4496   29.3166 -102.7913   29.5260 -102.6646   29.3991 *********  -12.0382
  3.320  -97.0618   34.5565  -97.9200   33.0517  -97.7471   33.4557  -97.1613   32.7629  -98.6516   32.6772  -98.4906   32.5701 *********  -12.4894
  3.330  -94.1809   37.7432  -94.8046   36.1377  -94.7014   36.5026  -94.1970   35.8027  -95.7260   35.4120  -95.5323   35.3498 *********  -12.9386
  3.340  -92.1833   40.2940  -92.6001   38.6521  -92.5416   38.9807  -92.1269   38.2361  -93.6020   37.5698  -93.3968   37.5739 *********  -13.3780
  3.350  -90.6972   42.2612  -90.9435   40.6210  -90.9195   40.9199  -90.5912   40.0880  -91.9466   39.1986  -91.7627   39.2721 *********  -13.8039
  3.360  -89.5428   43.7989  -89.6506   42.1784  -89.6578   42.4484  -89.3929   41.4834  -90.5901   40.4312  -90.4546   40.5566 *********  -14.2261
  3.370  -88.6851   45.0044  -88.6778   43.4128  -88.7102   43.6488  -88.4631   42.5157  -89.4857   41.3592  -89.4094   41.5098 *********  -14.6776
  3.380  -88.1138   45.8833  -88.0112   44.3257  -88.0548   44.5256  -87.7677   43.2115  -88.6151   42.0023  -88.5945   42.1544 *********  -15.1910
  3.390  -87.7796   46.4014  -87.5960   44.8701  -87.6377   45.0492  -87.2528   43.5631  -87.9355   42.3439  -87.9594   42.4817 *********  -15.7391
  3.400  -87.5950   46.5387  -87.3134   45.0344  -87.3714   45.2037  -86.8364   43.5761  -87.3700   42.3803  -87.4251   42.4957 *********  -16.2296
  3.410  -87.4669   46.3080  -87.0907   44.8669  -87.1666   45.0064  -86.4505   43.2835  -86.8544   42.1389  -86.9288   42.2302 -996.4790  -16.5958
  3.420  -87.3110   45.7463  -86.8675   44.3865  -86.9459   44.4927  -86.0356   42.7196  -86.3335   41.6465  -86.4182   41.7151 -692.1455  -16.8502
  3.430  -87.0611   44.9105  -86.5749   43.6367  -86.6469   43.7154  -85.5414   41.9339  -85.7576   40.9441  -85.8463   40.9932 -516.6796  -17.0401
  3.440  -86.6754   43.8670  -86.1675   42.6779  -86.2289   42.7354  -84.9368   40.9823  -85.0941   40.0810  -85.1827   40.1140 -429.6473  -17.1980
  3.450  -86.1342   42.6808  -85.6224   41.5714  -85.6719   41.6131  -84.2086   39.9183  -84.3269   39.1057  -84.4128   39.1262 -378.2264  -17.3370
  3.460  -85.4356   41.4094  -84.9340   40.3723  -84.9717   40.4026  -83.3567   38.7888  -83.4524   38.0616  -83.5343   38.0725 -340.0184  -17.4619
  3.470  -84.5892   40.1001  -84.1089   39.1264  -84.1355   39.1485  -82.3899   37.6319  -82.4760   36.9846  -82.5535   36.9885 -308.9043  -17.5754
  3.480  -83.6114   38.7893  -83.1604   37.8697  -83.1769   37.8861  -81.3220   36.4766  -81.4083   35.9030  -81.4812   35.9019 -282.8372  -17.6794
  3.490  -82.5216   37.5035  -82.1054   36.6290  -82.1130   36.6413  -80.1688   35.3441  -80.2625   34.8379  -80.3311   34.8332 -260.5748  -17.7751
  3.500  -81.3397   36.2610  -80.9618   35.4231  -80.9615   35.4326  -78.9462   34.2490  -79.0523   33.8041  -79.1169   33.7971 -241.2194  -17.8638
  3.510  -80.0843   35.0736  -79.7467   34.2648  -79.7395   34.2722  -77.6691   33.2008  -77.7910   32.8116  -77.8521   32.8032 -224.1478  -17.9462
  3.520  -78.7720   33.9483  -78.4758   33.1617  -78.4626   33.1678  -76.3509   32.2050  -76.4909   31.8670  -76.5487   31.8577 -208.9517  -18.0230
  3.530  -77.4175   32.8885  -77.1630   32.1185  -77.1444   32.1235  -75.0030   31.2644  -75.1624   30.9736  -75.2174   30.9641 -195.3764  -18.0948
  3.540  -76.0331   31.8954  -75.8200   31.1368  -75.7966   31.1410  -73.6351   30.3800  -73.8148   30.1332  -73.8674   30.1237 -183.2667  -18.1621
  3.550  -74.6289   30.9684  -74.4569   30.2167  -74.4292   30.2204  -72.2555   29.5512  -72.4559   29.3459  -72.5062   29.3367 -172.5259  -18.2255
  3.560  -73.2135   30.1059  -73.0820   29.3574  -73.0503   29.3605  -70.8706   28.7769  -71.0920   28.6110  -71.1404   28.6024 -163.0872  -18.2854
  3.570  -71.7938   29.3055  -71.7022   28.5568  -71.6669   28.5596  -69.4861   28.0550  -69.7285   27.9272  -69.7752   27.9193 -154.8965  -18.3424
  3.580  -70.3752   28.5647  -70.3230   27.8128  -70.2843   27.8153  -68.1062   27.3836  -68.3698   27.2929  -68.4149   27.2858 -147.9019  -18.3967
  3.590  -68.9624   27.8807  -68.9491   27.1229  -68.9071   27.1251  -66.7344   26.7603  -67.0193   26.7062  -67.0631   26.6999 -142.0494  -18.4489
  3.600  -67.5589   27.2508  -67.5841   26.4845  -67.5390   26.4864  -65.3736   26.1828  -65.6799   26.1650  -65.7225   26.1597 -137.2808  -18.4994
  3.610  -66.1674   26.6720  -66.2308   25.8949  -66.1828   25.8967  -64.0257   25.6488  -64.3539   25.6673  -64.3953   25.6631 -133.5343  -18.5484
  3.620  -64.7902   26.1418  -64.8918   25.3516  -64.8408   25.3532  -62.6926   25.1560  -63.0430   25.2113  -63.0834   25.2081 -130.7454  -18.5965
  3.630  -63.4291   25.6577  -63.5686   24.8521  -63.5148   24.8536  -61.3754   24.7024  -61.7485   24.7949  -61.7881   24.7928 -128.8486  -18.6438
  3.640  -62.0853   25.2173  -62.2628   24.3940  -62.2062   24.3954  -60.0750   24.2859  -60.4717   24.4164  -60.5105   24.4154 -127.7796  -18.6908
  3.650  -60.7596   24.8186  -60.9752   23.9752  -60.9159   23.9766  -58.7921   23.9046  -59.2132   24.0741  -59.2513   24.0742 -127.4764  -18.7376
  3.660  -59.4529   24.4593  -59.7068   23.5935  -59.6446   23.5949  -57.5269   23.5568  -57.9736   23.7663  -58.0110   23.7676 -127.8813  -18.7846
  3.670  -58.1656   24.1378  -58.4579   23.2469  -58.3929   23.2484  -56.2797   23.2408  -56.7532   23.4917  -56.7900   23.4940 -128.9416  -18.8320
  3.680  -56.8978   23.8524  -57.2287   22.9337  -57.1610   22.9354  -55.0504   22.9553  -55.5523   23.2487  -55.5885   23.2522 -130.6111  -18.8800
  3.690  -55.6498   23.6016  -56.0195   22.6523  -55.9490   22.6541  -53.8388   22.6987  -54.3709   23.0363  -54.4066   23.0410 -132.8501  -18.9288
  3.700  -54.4214   23.3840  -54.8302   22.4010  -54.7567   22.4031  -52.6448   22.4699  -53.2090   22.8533  -53.2442   22.8591 -135.6257  -18.9787
  3.710  -53.2126   23.1986  -53.6605   22.1785  -53.5842   22.1810  -51.4678   22.2678  -52.0664   22.6987  -52.1012   22.7057 -138.9123  -19.0297
  3.720  -52.0232   23.0442  -52.5103   21.9835  -52.4310   21.9865  -50.3075   22.0915  -50.9431   22.5716  -50.9774   22.5798 -142.6910  -19.0822
  3.730  -50.8529   22.9200  -51.3790   21.8150  -51.2967   21.8185  -49.1632   21.9401  -49.8387   22.4714  -49.8725   22.4807 -146.9491  -19.1362
  3.740  -49.7016   22.8254  -50.2664   21.6719  -50.1810   21.6760  -48.0345   21.8129  -48.7529   22.3973  -48.7864   22.4079 -151.6802  -19.1919
  3.750  -48.5688   22.7596  -49.1718   21.5534  -49.0834   21.5583  -46.9206   21.7093  -47.6856   22.3490  -47.7187   22.3607 -156.8827  -19.2496
  3.760  -47.4544   22.7224  -48.0948   21.4587  -48.0032   21.4645  -45.8208   21.6289  -46.6364   22.3259  -46.6691   22.3388 -162.5603  -19.3093
  3.770  -46.3580   22.7133  -47.0347   21.3873  -46.9399   21.3941  -44.7345   21.5715  -45.6050   22.3279  -45.6373   22.3420 -168.7200  -19.3713
  3.780  -45.2795   22.7323  -45.9910   21.3387  -45.8928   21.3466  -43.6608   21.5367  -44.5912   22.3547  -44.6231   22.3701 -175.3726  -19.4358
  3.790  -44.2186   22.7792  -44.9629   21.3126  -44.8614   21.3218  -42.5990   21.5247  -43.5948   22.4064  -43.6263   22.4230 -182.5312  -19.5028
  3.800  -43.1753   22.8540  -43.9499   21.3088  -43.8449   21.3194  -41.5484   21.5354  -42.6155   22.4829  -42.6466   22.5007 -190.2109  -19.5727
  3.810  -42.1495   22.9570  -42.9513   21.3272  -42.8427   21.3393  -40.5081   21.5692  -41.6533   22.5844  -41.6840   22.6035 -198.4277  -19.6457
  3.820  -41.1413   23.0884  -41.9664   21.3679  -41.8542   21.3818  -39.4775   21.6264  -40.7082   22.7112  -40.7384   22.7315 -207.1984  -19.7218
  3.830  -40.1508   23.2483  -40.9947   21.4311  -40.8788   21.4470  -38.4558   21.7077  -39.7801   22.8636  -39.8099   22.8851 -216.5395  -19.8014
  3.840  -39.1782   23.4373  -40.0354   21.5173  -39.9157   21.5353  -37.4423   21.8136  -38.8692   23.0419  -38.8984   23.0647 -226.4666  -19.8846
  3.850  -38.2240   23.6557  -39.0882   21.6269  -38.9645   21.6473  -36.4364   21.9450  -37.9757   23.2466  -38.0044   23.2707 -236.9937  -19.9717
  3.860  -37.2885   23.9038  -38.1523   21.7607  -38.0247   21.7837  -35.4374   22.1031  -37.1000   23.4782  -37.1280   23.5036 -248.1330  -20.0629
  3.870  -36.3724   24.1821  -37.2275   21.9194  -37.0958   21.9454  -34.4448   22.2891  -36.2424   23.7372  -36.2697   23.7639 -259.8933  -20.1584
  3.880  -35.4763   24.4910  -36.3133   22.1043  -36.1774   22.1335  -33.4581   22.5043  -35.4035   24.0243  -35.4300   24.0523 -272.2803  -20.2585
  3.890  -34.6009   24.8308  -35.4095   22.3165  -35.2693   22.3493  -32.4770   22.7504  -34.5838   24.3399  -34.6095   24.3693 -285.2954  -20.3633
  3.900  -33.7469   25.2019  -34.5159   22.5575  -34.3713   22.5942  -31.5012   23.0294  -33.7842   24.6848  -33.8087   24.7156 -298.9351  -20.4732
  3.910  -32.9151   25.6044  -33.6326   22.8290  -33.4835   22.8700  -30.5306   23.3432  -33.0053   25.0596  -33.0286   25.0918 -313.1904  -20.5883
  3.920  -32.1062   26.0389  -32.7598   23.1328  -32.6061   23.1786  -29.5652   23.6942  -32.2478   25.4649  -32.2697   25.4986 -328.0462  -20.7088
  3.930  -31.3207   26.5056  -31.8978   23.4711  -31.7395   23.5222  -28.6054   24.0851  -31.5128   25.9016  -31.5329   25.9370 -343.4807  -20.8350
  3.940  -30.5591   27.0050  -31.0475   23.8463  -30.8845   23.9033  -27.6517   24.5188  -30.8010   26.3706  -30.8191   26.4078 -359.4649  -20.9671
  3.950  -29.8218   27.5379  -30.2099   24.2610  -30.0422   24.3245  -26.7047   24.9984  -30.1134   26.8731  -30.1292   26.9124 -375.9617  -21.1053
  3.960  -29.1092   28.1054  -29.3864   24.7181  -29.2140   24.7889  -25.7658   25.5275  -29.4511   27.4105  -29.4642   27.4521 -392.9263  -21.2497
  3.970  -28.4214   28.7092  -28.5790   25.2208  -28.4020   25.2996  -24.8364   26.1101  -28.8154   27.9846  -28.8255   28.0290 -410.3050  -21.4005
  3.980  -27.7591   29.3514  -27.7902   25.7724  -27.6087   25.8600  -23.9187   26.7502  -28.2080   28.5976  -28.2146   28.6453 -428.0355  -21.5578
  3.990  -27.1230   30.0352  -27.0233   26.3764  -26.8376   26.4739  -23.0153   27.4525  -27.6309   29.2521  -27.6337   29.3039 -446.0466  -21.7217
  4.000  -26.5147   30.7643  -26.2824   27.0364  -26.0928   27.1448  -22.1297   28.2220  -27.0873   29.9514  -27.0860   30.0082 -464.2585  -21.8923
  4.010  -25.9365   31.5434  -25.5724   27.7562  -25.3794   27.8766  -21.2662   29.0638  -26.5811   30.6990  -26.5754   30.7617 -482.5825  -22.0697
  4.020  -25.3924   32.3779  -24.8994   28.5392  -24.7036   28.6729  -20.4301   29.9836  -26.1176   31.4986  -26.1076   31.5684 -500.9220  -22.2537
  4.030  -24.8880   33.2733  -24.2707   29.3887  -24.0731   29.5371  -19.6280   30.9870  -25.7040   32.3538  -25.6897   32.4322 -519.1724  -22.4445
  4.040  -24.4307   34.2357  -23.6949   30.3075  -23.4966   30.4718  -18.8678   32.0800  -25.3489   33.2678  -25.3308   33.3563 -537.2222  -22.6420
  4.050  -24.0308   35.2704  -23.1821   31.2973  -22.9845   31.4790  -18.1594   33.2682  -25.0633   34.2428  -25.0421   34.3430 -554.9539  -22.8459
  4.060  -23.7008   36.3819  -22.7437   32.3590  -22.5488   32.5594  -17.5143   34.5572  -24.8602   35.2793  -24.8369   35.3928 -572.2447  -23.0562
  4.070  -23.4560   37.5730  -22.3929   33.4916  -22.2028   33.7120  -16.9464   35.9518  -24.7543   36.3754  -24.7307   36.5039 -588.9682  -23.2726
  4.080  -23.3143   38.8438  -22.1439   34.6921  -21.9614   34.9335  -16.4721   37.4557  -24.7624   37.5263  -24.7403   37.6712 -604.9953  -23.4950
  4.090  -23.2959   40.1913  -22.0122   35.9549  -21.8404   36.2180  -16.1105   39.0710  -24.9020   38.7232  -24.8840   38.8857 -620.1962  -23.7229
  4.100  -23.4228   41.6078  -22.0137   37.2712  -21.8562   37.5562  -15.8835   40.7972  -25.1911   39.9528  -25.1801   40.1335 -634.4415  -23.9560
  4.110  -23.7180   43.0806  -22.1646   38.6284  -22.0254   38.9349  -15.8161   42.6306  -25.6466   41.1964  -25.6458   41.3955 -647.6046  -24.1940
  4.120  -24.2045   44.5910  -22.4800   40.0102  -22.3635   40.3370  -15.9357   44.5628  -26.2831   42.4300  -26.2961   42.6470 -659.5627  -24.4364
  4.130  -24.9031   46.1137  -22.9736   41.3959  -22.8841   41.7409  -16.2721   46.5796  -27.1111   43.6244  -27.1415   43.8577 -670.1992  -24.6827
  4.140  -25.8316   47.6164  -23.6558   42.7608  -23.5977   43.1207  -16.8559   48.6597  -28.1354   44.7454  -28.1864   44.9928 -679.4055  -24.9324
  4.150  -27.0017   49.0604  -24.5333   44.0764  -24.5104   44.4469  -17.7174   50.7730  -29.3528   45.7559  -29.4273   46.0141 -687.0821  -25.1849
  4.160  -28.4175   50.4019  -25.6073   45.3112  -25.6228   45.6868  -18.8842   52.8801  -30.7512   46.6175  -30.8513   46.8826 -693.1414  -25.4396
  4.170  -30.0728   51.5932  -26.8728   46.4318  -26.9290   46.8061  -20.3780   54.9311  -32.3087   47.2931  -32.4355   47.5608 -697.5083  -25.6959
  4.180  -31.9505   52.5860  -28.3181   47.4044  -28.4155   47.7702  -22.2113   56.8668  -33.9937   47.7504  -34.1473   48.0160 -700.1221  -25.9532
  4.190  -34.0209   53.3343  -29.9236   48.1962  -30.0613   48.5460  -24.3834   58.6198  -35.7664   47.9646  -35.9455   48.2237 -700.9378  -26.2108
  4.200  -36.2428   53.7980  -31.6626   48.7774  -31.8379   49.1041  -26.8768   60.1184  -37.5809   47.9208  -37.7835   48.1694 -699.9267  -26.4680
  4.210  -38.5651   53.9466  -33.5011   49.1235  -33.7095   49.4203  -29.6549   61.2915  -39.3888   47.6158  -39.6119   47.8506 -697.0776  -26.7242
  4.220  -40.9293   53.7616  -35.3995   49.2168  -35.6352   49.4783  -32.6610   62.0749  -41.1428   47.0581  -41.3829   47.2769 -692.3974  -26.9787
  4.230  -43.2730   53.2391  -37.3140   49.0483  -37.5699   49.2706  -35.8200   62.4180  -42.7996   46.2671  -43.0530   46.4686 -685.9108  -27.2307
  4.240  -45.5347   52.3897  -39.1990   48.6190  -39.4675   48.8001  -39.0433   62.2904  -44.3235   45.2707  -44.5864   45.4546 -677.6607  -27.4798
  4.250  -47.6575   51.2382  -41.0103   47.9402  -41.2836   48.0798  -42.2358   61.6856  -45.6873   44.1030  -45.9565   44.2697 -667.7076  -27.7251
  4.260  -49.5932   49.8214  -42.7072   47.0328  -42.9783   47.1324  -45.3033   60.6223  -46.8735   42.8007  -47.1462   42.9514 -656.1291  -27.9663
  4.270  -51.3045   48.1847  -44.2562   45.9259  -44.5187   45.9884  -48.1615   59.1427  -47.8738   41.4008  -48.1477   41.5369 -643.0190  -28.2026
  4.280  -52.7669   46.3785  -45.6317   44.6541  -45.8806   44.6836  -50.7420   57.3073  -48.6879   39.9379  -48.9613   40.0612 -628.4855  -28.4335
  4.290  -53.9689   44.4544  -46.8176   43.2551  -47.0493   43.2561  -52.9966   55.1883  -49.3217   38.4431  -49.5935   38.5556 -612.6507  -28.6587
  4.300  -54.9102   42.4616  -47.8071   41.7667  -48.0189   41.7441  -54.8979   52.8626  -49.7860   36.9431  -50.0555   37.0463 -595.6480  -28.8776
  4.310  -55.6006   40.4445  -48.6012   40.2246  -48.7920   40.1830  -56.4385   50.4051  -50.0948   35.4594  -50.3616   35.5550 -577.6206  -29.0899
  4.320  -56.0571   38.4408  -49.2079   38.6605  -49.3772   38.6043  -57.6276   47.8842  -50.2634   34.0090  -50.5276   34.0985 -558.7196  -29.2952
  4.330  -56.3015   36.4811  -49.6396   37.1013  -49.7879   37.0343  -58.4865   45.3582  -50.3080   32.6044  -50.5698   32.6890 -539.1016  -29.4933
  4.340  -56.3580   34.5885  -49.9122   35.5686  -50.0404   35.4940  -59.0450   42.8745  -50.2444   31.2546  -50.5040   31.3353 -518.9266  -29.6840
  4.350  -56.2519   32.7796  -50.0428   34.0790  -50.1522   33.9995  -59.3373   40.4690  -50.0875   29.9654  -50.3455   30.0430 -498.3557  -29.8671
  4.360  -56.0074   31.0651  -50.0491   32.6444  -50.1412   32.5622  -59.3991   38.1675  -49.8513   28.7400  -50.1080   28.8151 -477.5491  -30.0426
  4.370  -55.6475   29.4510  -49.9482   31.2728  -50.0245   31.1895  -59.2652   35.9867  -49.5481   27.5797  -49.8040   27.6529 -456.6638  -30.2105
  4.380  -55.1930   27.9395  -49.7559   29.9691  -49.8179   29.8859  -58.9682   33.9361  -49.1892   26.4844  -49.4447   26.5561 -435.8517  -30.3706
  4.390  -54.6622   26.5299  -49.4869   28.7354  -49.5361   28.6532  -58.5377   32.0197  -48.7843   25.4527  -49.0398   25.5232 -415.2577  -30.5232
  4.400  -54.0711   25.2195  -49.1540   27.5720  -49.1918   27.4915  -57.9997   30.2371  -48.3418   24.4827  -48.5978   24.5523 -395.0182  -30.6684
  4.410  -53.4333   24.0043  -48.7687   26.4778  -48.7962   26.3994  -57.3767   28.5849  -47.8690   23.5718  -48.1258   23.6407 -375.2594  -30.8063
  4.420  -52.7604   22.8792  -48.3408   25.4508  -48.3591   25.3745  -56.6879   27.0576  -47.3722   22.7173  -47.6302   22.7855 -356.0964  -30.9372
  4.430  -52.0620   21.8389  -47.8786   24.4880  -47.8887   24.4141  -55.9496   25.6486  -46.8566   21.9161  -47.1161   21.9838 -337.6321  -31.0612
  4.440  -51.3460   20.8777  -47.3894   23.5864  -47.3921   23.5148  -55.1750   24.3505  -46.3268   21.1652  -46.5881   21.2325 -319.9566  -31.1788
  4.450  -50.6191   19.9899  -46.8793   22.7426  -46.8752   22.6732  -54.3752   23.1556  -45.7865   20.4616  -46.0499   20.5284 -303.1466  -31.2902
  4.460  -49.8865   19.1701  -46.3532   21.9531  -46.3430   21.8858  -53.5592   22.0562  -45.2390   19.8023  -45.5046   19.8687 -287.2656  -31.3958
  4.470  -49.1525   18.4130  -45.8154   21.2144  -45.7996   21.1491  -52.7344   21.0449  -44.6867   19.1844  -44.9548   19.2506 -272.3635  -31.4959
  4.480  -48.4205   17.7136  -45.2695   20.5234  -45.2484   20.4599  -51.9064   20.1145  -44.1320   18.6054  -44.4029   18.6713 -258.4775  -31.5909
  4.490  -47.6933   17.0674  -44.7183   19.8768  -44.6924   19.8149  -51.0799   19.2585  -43.5767   18.0627  -43.8505   18.1283 -245.6322  -31.6811
  4.500  -46.9728   16.4701  -44.1644   19.2717  -44.1338   19.2111  -50.2586   18.4705  -43.0223   17.5538  -43.2992   17.6191 -233.8403  -31.7671
  4.510  -46.2609   15.9178  -43.6096   18.7051  -43.5747   18.6457  -49.4454   17.7448  -42.4699   17.0767  -42.7503   17.1417 -223.1038  -31.8491
  4.520  -45.5586   15.4067  -43.0557   18.1745  -43.0165   18.1162  -48.6423   17.0762  -41.9207   16.6291  -42.2046   16.6939 -213.4145  -31.9275
  4.530  -44.8670   14.9337  -42.5038   17.6774  -42.4606   17.6200  -47.8510   16.4599  -41.3754   16.2093  -41.6631   16.2738 -204.7555  -32.0027
  4.540  -44.1867   14.4958  -41.9552   17.2116  -41.9079   17.1549  -47.0726   15.8915  -40.8347   15.8154  -41.1264   15.8797 -197.1021  -32.0752
  4.550  -43.5180   14.0900  -41.4107   16.7750  -41.3594   16.7188  -46.3082   15.3670  -40.2991   15.4458  -40.5950   15.5099 -190.4227  -32.1452
  4.560  -42.8614   13.7141  -40.8709   16.3656  -40.8157   16.3098  -45.5581   14.8827  -39.7691   15.0990  -40.0693   15.1628 -184.6807  -32.2130
  4.570  -42.2168   13.3658  -40.3364   15.9817  -40.2773   15.9263  -44.8227   14.4355  -39.2448   14.7736  -39.5497   14.8372 -179.8349  -32.2791
  4.580  -41.5845   13.0429  -39.8077   15.6217  -39.7445   15.5664  -44.1022   14.0223  -38.7267   14.4683  -39.0363   14.5317 -175.8407  -32.3437
  4.590  -40.9642   12.7436  -39.2850   15.2840  -39.2178   15.2289  -43.3966   13.6405  -38.2147   14.1821  -38.5294   14.2452 -172.6514  -32.4072
  4.600  -40.3559   12.4663  -38.7686   14.9673  -38.6973   14.9122  -42.7057   13.2876  -37.7091   13.9137  -38.0291   13.9765 -170.2191  -32.4697
  4.610  -39.7593   12.2094  -38.2586   14.6704  -38.1833   14.6152  -42.0295   12.9615  -37.2099   13.6622  -37.5354   13.7247 -168.4953  -32.5317
  4.620  -39.1744   11.9715  -37.7552   14.3921  -37.6756   14.3367  -41.3676   12.6603  -36.7172   13.4266  -37.0485   13.4888 -167.4317  -32.5932
  4.630  -38.6008   11.7514  -37.2585   14.1313  -37.1746   14.0757  -40.7197   12.3820  -36.2309   13.2063  -36.5682   13.2681 -166.9812  -32.6546
  4.640  -38.0383   11.5480  -36.7684   13.8870  -36.6801   13.8312  -40.0856   12.1252  -35.7510   13.0003  -36.0946   13.0618 -167.0979  -32.7160
  4.650  -37.4867   11.3601  -36.2850   13.6585  -36.1921   13.6024  -39.4649   11.8883  -35.2775   12.8079  -35.6277   12.8690 -167.7381  -32.7776
  4.660  -36.9455   11.1869  -35.8083   13.4448  -35.7107   13.3884  -38.8571   11.6700  -34.8103   12.6286  -35.1674   12.6893 -168.8601  -32.8397
  4.670  -36.4146   11.0275  -35.3382   13.2452  -35.2357   13.1885  -38.2620   11.4691  -34.3493   12.4618  -34.7136   12.5219 -170.4251  -32.9023
  4.680  -35.8936   10.8811  -34.8746   13.0591  -34.7670   13.0020  -37.6791   11.2846  -33.8945   12.3068  -34.2663   12.3663 -172.3968  -32.9656
  4.690  -35.3824   10.7471  -34.4175   12.8857  -34.3047   12.8283  -37.1080   11.1155  -33.4457   12.1632  -33.8254   12.2221 -174.7416  -33.0299
  4.700  -34.8805   10.6247  -33.9667   12.7247  -33.8486   12.6668  -36.5485   10.9608  -33.0029   12.0306  -33.3908   12.0887 -177.4291  -33.0951
  4.710  -34.3878   10.5135  -33.5223   12.5753  -33.3986   12.5170  -36.0000   10.8198  -32.5660   11.9085  -32.9625   11.9658 -180.4315  -33.1614
  4.720  -33.9039   10.4129  -33.0841   12.4371  -32.9547   12.3785  -35.4623   10.6918  -32.1348   11.7965  -32.5403   11.8529 -183.7239  -33.2289
  4.730  -33.4286   10.3223  -32.6521   12.3097  -32.5166   12.2508  -34.9350   10.5761  -31.7093   11.6943  -32.1242   11.7497 -187.2841  -33.2977
  4.740  -32.9617   10.2415  -32.2260   12.1927  -32.0843   12.1335  -34.4177   10.4722  -31.2893   11.6016  -31.7141   11.6558 -191.0924  -33.3679
  4.750  -32.5029   10.1700  -31.8059   12.0857  -31.6577   12.0262  -33.9102   10.3794  -30.8748   11.5182  -31.3099   11.5711 -195.1314  -33.4397
  4.760  -32.0520   10.1073  -31.3917   11.9884  -31.2367   11.9286  -33.4120   10.2973  -30.4657   11.4437  -30.9116   11.4950 -199.3860  -33.5129
  4.770  -31.6088   10.0533  -30.9832   11.9004  -30.8212   11.8405  -32.9230   10.2254  -30.0618   11.3779  -30.5190   11.4276 -203.8434  -33.5878
  4.780  -31.1731   10.0076  -30.5803   11.8215  -30.4110   11.7615  -32.4429   10.1635  -29.6632   11.3206  -30.1322   11.3684 -208.4922  -33.6645
  4.790  -30.7447    9.9700  -30.1831   11.7514  -30.0061   11.6914  -31.9713   10.1110  -29.2696   11.2716  -29.7510   11.3173 -213.3229  -33.7428
  4.800  -30.3234    9.9401  -29.7913   11.6899  -29.6064   11.6300  -31.5080   10.0678  -28.8810   11.2308  -29.3754   11.2741 -218.3275  -33.8231
  4.810  -29.9090    9.9179  -29.4050   11.6368  -29.2118   11.5771  -31.0528   10.0335  -28.4974   11.1980  -29.0054   11.2386 -223.4990  -33.9052
  4.820  -29.5013    9.9031  -29.0241   11.5918  -28.8222   11.5325  -30.6055   10.0078  -28.1186   11.1732  -28.6410   11.2107 -228.8319  -33.9893
  4.830  -29.1003    9.8955  -28.6484   11.5549  -28.4375   11.4960  -30.1658    9.9907  -27.7446   11.1561  -28.2820   11.1902 -234.3211  -34.0754
  4.840  -28.7058    9.8949  -28.2780   11.5258  -28.0576   11.4676  -29.7335    9.9818  -27.3754   11.1467  -27.9285   11.1770 -239.9626  -34.1636
  4.850  -28.3176    9.9013  -27.9128   11.5044  -27.6825   11.4470  -29.3084    9.9809  -27.0109   11.1450  -27.5805   11.1710 -245.7528  -34.2539
  4.860  -27.9356    9.9146  -27.5527   11.4906  -27.3120   11.4342  -28.8904    9.9881  -26.6510   11.1508  -27.2379   11.1720 -251.6882  -34.3464
  4.870  -27.5597    9.9345  -27.1977   11.4843  -26.9461   11.4292  -28.4793   10.0030  -26.2957   11.1641  -26.9008   11.1800 -257.7658  -34.4411
  4.880  -27.1898    9.9610  -26.8477   11.4853  -26.5848   11.4317  -28.0750   10.0257  -25.9449   11.1850  -26.5691   11.1948 -263.9825  -34.5382
  4.890  -26.8258    9.9941  -26.5028   11.4936  -26.2279   11.4419  -27.6772   10.0560  -25.5987   11.2134  -26.2430   11.2164 -270.3350  -34.6375
  4.900  -26.4675   10.0336  -26.1628   11.5091  -25.8755   11.4596  -27.2860   10.0939  -25.2570   11.2492  -25.9223   11.2447 -276.8196  -34.7392
  4.910  -26.1150   10.0795  -25.8278   11.5318  -25.5274   11.4849  -26.9011   10.1393  -24.9198   11.2926  -25.6073   11.2796 -283.4322  -34.8434
  4.920  -25.7680   10.1318  -25.4977   11.5616  -25.1836   11.5177  -26.5224   10.1923  -24.5870   11.3436  -25.2978   11.3210 -290.1681  -34.9500
  4.930  -25.4265   10.1905  -25.1726   11.5985  -24.8440   11.5581  -26.1499   10.2528  -24.2588   11.4022  -24.9939   11.3689 -297.0217  -35.0592
  4.940  -25.0905   10.2554  -24.8523   11.6424  -24.5087   11.6061  -25.7835   10.3208  -23.9351   11.4685  -24.6957   11.4232 -303.9864  -35.1709
  4.950  -24.7597   10.3267  -24.5369   11.6934  -24.1775   11.6618  -25.4230   10.3963  -23.6158   11.5426  -24.4033   11.4838 -311.0547  -35.2852
  4.960  -24.4343   10.4044  -24.2265   11.7515  -23.8504   11.7252  -25.0685   10.4795  -23.3011   11.6246  -24.1167   11.5507 -318.2177  -35.4021
  4.970  -24.1139   10.4884  -23.9208   11.8166  -23.5274   11.7965  -24.7198   10.5705  -22.9910   11.7146  -23.8360   11.6238 -325.4652  -35.5217
  4.980  -23.7987   10.5789  -23.6201   11.8889  -23.2084   11.8758  -24.3769   10.6693  -22.6854   11.8129  -23.5612   11.7031 -332.7857  -35.6440
  4.990  -23.4885   10.6760  -23.3242   11.9684  -22.8934   11.9633  -24.0398   10.7761  -22.3846   11.9195  -23.2925   11.7885 -340.1659  -35.7691
  5.000  -23.1832   10.7797  -23.0332   12.0551  -22.5825   12.0592  -23.7085   10.8910  -22.0886   12.0348  -23.0299   11.8799 -347.5912  -35.8968
  5.010  -22.8827   10.8903  -22.7471   12.1494  -22.2755   12.1638  -23.3829   11.0144  -21.7974   12.1590  -22.7735   11.9773 -355.0451  -36.0273
  5.020  -22.5870   11.0080  -22.4659   12.2512  -21.9726   12.2774  -23.0631   11.1464  -21.5113   12.2924  -22.5234   12.0807 -362.5095  -36.1605
  5.030  -22.2961   11.1330  -22.1897   12.3607  -21.6737   12.4002  -22.7492   11.2873  -21.2303   12.4353  -22.2797   12.1899 -369.9649  -36.2964
  5.040  -22.0098   11.2656  -21.9184   12.4784  -21.3790   12.5329  -22.4412   11.4376  -20.9548   12.5882  -22.0423   12.3051 -377.3897  -36.4351
  5.050  -21.7281   11.4062  -21.6523   12.6043  -21.0885   12.6757  -22.1393   11.5976  -20.6850   12.7513  -21.8116   12.4260 -384.7612  -36.5765
  5.060  -21.4511   11.5553  -21.3914   12.7389  -20.8025   12.8293  -21.8436   11.7679  -20.4212   12.9254  -21.5874   12.5529 -392.0550  -36.7206
  5.070  -21.1789   11.7135  -21.1359   12.8825  -20.5211   12.9942  -21.5546   11.9489  -20.1638   13.1107  -21.3699   12.6856 -399.2452  -36.8673
  5.080  -20.9116   11.8813  -20.8861   13.0357  -20.2448   13.1712  -21.2725   12.1413  -19.9135   13.3081  -21.1592   12.8242 -406.3050  -37.0166
  5.090  -20.6496   12.0595  -20.6422   13.1990  -19.9739   13.3611  -20.9979   12.3457  -19.6708   13.5179  -20.9554   12.9687 -413.2064  -37.1685
  5.100  -20.3931   12.2490  -20.4048   13.3728  -19.7090   13.5645  -20.7314   12.5628  -19.4367   13.7410  -20.7586   13.1194 -419.9208  -37.3228
  5.110  -20.1428   12.4505  -20.1745   13.5580  -19.4509   13.7825  -20.4738   12.7935  -19.2120   13.9780  -20.5689   13.2762 -426.4189  -37.4795
  5.120  -19.8995   12.6651  -19.9519   13.7550  -19.2006   14.0160  -20.2263   13.0385  -18.9979   14.2295  -20.3866   13.4394 -432.6711  -37.6385
  5.130  -19.6642   12.8938  -19.7381   13.9646  -18.9591   14.2659  -19.9901   13.2986  -18.7960   14.4961  -20.2119   13.6092 -438.6479  -37.7997
  5.140  -19.4383   13.1376  -19.5342   14.1875  -18.7280   14.5331  -19.7669   13.5743  -18.6079   14.7782  -20.0451   13.7859 -444.3200  -37.9630
  5.150  -19.2235   13.3972  -19.3417   14.4240  -18.5090   14.8186  -19.5585   13.8664  -18.4356   15.0764  -19.8865   13.9697 -449.6588  -38.1283
  5.160  -19.0219   13.6735  -19.1623   14.6747  -18.3042   15.1230  -19.3671   14.1750  -18.2813   15.3905  -19.7366   14.1609 -454.6367  -38.2953
  5.170  -18.8360   13.9668  -18.9979   14.9396  -18.1159   15.4469  -19.1955   14.5003  -18.1475   15.7204  -19.5962   14.3600 -459.2271  -38.4641
  5.180  -18.6684   14.2772  -18.8507   15.2187  -17.9469   15.7906  -19.0463   14.8417  -18.0370   16.0654  -19.4658   14.5671 -463.4053  -38.6344
  5.190  -18.5222   14.6041  -18.7230   15.5113  -17.8004   16.1540  -18.9225   15.1983  -17.9525   16.4244  -19.3466   14.7826 -467.1481  -38.8061
  5.200  -18.4007   14.9465  -18.6174   15.8164  -17.6795   16.5364  -18.8274   15.5685  -17.8970   16.7957  -19.2395   15.0066 -470.4348  -38.9789
  5.210  -18.3069   15.3024  -18.5362   16.1325  -17.5878   16.9367  -18.7638   15.9499  -17.8734   17.1768  -19.1458   15.2392 -473.2467  -39.1529
  5.220  -18.2439   15.6693  -18.4817   16.4575  -17.5290   17.3530  -18.7347   16.3396  -17.8841   17.5649  -19.0670   15.4802 -475.5681  -39.3276
  5.230  -18.2143   16.0439  -18.4558   16.7888  -17.5066   17.7827  -18.7423   16.7339  -17.9313   17.9563  -19.0046   15.7292 -477.3858  -39.5031
  5.240  -18.2199   16.4221  -18.4601   17.1234  -17.5239   18.2224  -18.7883   17.1285  -18.0166   18.3468  -18.9604   15.9855 -478.6899  -39.6790
  5.250  -18.2619   16.7997  -18.4955   17.4581  -17.5839   18.6680  -18.8737   17.5185  -18.1408   18.7320  -18.9359   16.2482 -479.4733  -39.8552
  5.260  -18.3407   17.1722  -18.5625   17.7893  -17.6888   19.1147  -18.9983   17.8993  -18.3039   19.1071  -18.9329   16.5159 -479.7322  -40.0315
  5.270  -18.4555   17.5349  -18.6607   18.1134  -17.8403   19.5570  -19.1612   18.2658  -18.5053   19.4674  -18.9528   16.7868 -479.4660  -40.2077
  5.280  -18.6050   17.8836  -18.7894   18.4273  -18.0388   19.9892  -19.3606   18.6134  -18.7431   19.8084  -18.9971   17.0589 -478.6773  -40.3836
  5.290  -18.7870   18.2145  -18.9473   18.7277  -18.2841   20.4052  -19.5939   18.9380  -19.0152   20.1257  -19.0667   17.3298 -477.3718  -40.5590
  5.300  -18.9988   18.5244  -19.1326   19.0119  -18.5747   20.7991  -19.8578   19.2361  -19.3186   20.4157  -19.1623   17.5969 -475.5582  -40.7338
  5.310  -19.2375   18.8107  -19.3434   19.2775  -18.9081   21.1651  -20.1488   19.5047  -19.6496   20.6753  -19.2843   17.8574 -473.2482  -40.9077
  5.320  -19.4997   19.0714  -19.5776   19.5224  -19.2809   21.4979  -20.4628   19.7418  -20.0046   20.9018  -19.4324   18.1083 -470.4561  -41.0806
  5.330  -19.7825   19.3051  -19.8327   19.7450  -19.6889   21.7929  -20.7960   19.9460  -20.3794   21.0936  -19.6061   18.3468 -467.1988  -41.2523
  5.340  -20.0825   19.5111  -20.1064   19.9440  -20.1271   22.0463  -21.1444   20.1164  -20.7701   21.2494  -19.8042   18.5701 -463.4953  -41.4226
  5.350  -20.3971   19.6887  -20.3965   20.1183  -20.5903   22.2552  -21.5043   20.2528  -21.1725   21.3686  -20.0253   18.7756 -459.3668  -41.5914
  5.360  -20.7234   19.8380  -20.7005   20.2672  -21.0727   22.4175  -21.8722   20.3555  -21.5828   21.4512  -20.2676   18.9608 -454.8362  -41.7586
  5.370  -21.0591   19.9589  -21.0163   20.3900  -21.5686   22.5322  -22.2450   20.4251  -21.9974   21.4977  -20.5288   19.1236 -449.9277  -41.9239
  5.380  -21.4016   20.0517  -21.3416   20.4865  -22.0725   22.5989  -22.6196   20.4625  -22.4127   21.5088  -20.8065   19.2624 -444.6667  -42.0873
  5.390  -21.7491   20.1167  -21.6741   20.5564  -22.5789   22.6182  -22.9936   20.4686  -22.8258   21.4856  -21.0983   19.3757 -439.0794  -42.2487
  5.400  -22.0994   20.1544  -22.0119   20.5998  -23.0828   22.5915  -23.3646   20.4449  -23.2337   21.4296  -21.4013   19.4626 -433.1927  -42.4079
  5.410  -22.4508   20.1654  -22.3529   20.6167  -23.5795   22.5205  -23.7304   20.3925  -23.6340   21.3424  -21.7129   19.5224 -427.0336  -42.5648
  5.420  -22.8015   20.1502  -22.6950   20.6075  -24.0648   22.4076  -24.0894   20.3130  -24.0244   21.2257  -22.0302   19.5548 -420.6290  -42.7194
  5.430  -23.1498   20.1094  -23.0363   20.5726  -24.5352   22.2555  -24.4398   20.2076  -24.4030   21.0814  -22.3508   19.5598 -414.0056  -42.8715
  5.440  -23.4941   20.0437  -23.3749   20.5126  -24.9875   22.0672  -24.7802   20.0780  -24.7681   20.9113  -22.6719   19.5380 -407.1898  -43.0212
  5.450  -23.8328   19.9539  -23.7092   20.4282  -25.4191   21.8459  -25.1093   19.9255  -25.1183   20.7173  -22.9912   19.4898 -400.2069  -43.1683
  5.460  -24.1646   19.8409  -24.0373   20.3202  -25.8280   21.5949  -25.4260   19.7517  -25.4525   20.5015  -23.3064   19.4162 -393.0816  -43.3127
  5.470  -24.4879   19.7056  -24.3578   20.1896  -26.2126   21.3173  -25.7293   19.5580  -25.7695   20.2657  -23.6155   19.3184 -385.8372  -43.4545
  5.480  -24.8015   19.5490  -24.6691   20.0375  -26.5717   21.0166  -26.0184   19.3458  -26.0687   20.0120  -23.9166   19.1974 -378.4963  -43.5936
  5.490  -25.1041   19.3722  -24.9700   19.8649  -26.9045   20.6959  -26.2924   19.1168  -26.3494   19.7420  -24.2082   19.0548 -371.0796  -43.7300
  5.500  -25.3945   19.1764  -25.2592   19.6732  -27.2107   20.3582  -26.5507   18.8723  -26.6113   19.4578  -24.4888   18.8920 -363.6069  -43.8636
  5.510  -25.6718   18.9628  -25.5357   19.4637  -27.4903   20.0064  -26.7929   18.6138  -26.8541   19.1611  -24.7571   18.7105 -356.0964  -43.9945
  5.520  -25.9350   18.7328  -25.7984   19.2376  -27.7433   19.6433  -27.0186   18.3428  -27.0776   18.8535  -25.0123   18.5120 -348.5647  -44.1226
  5.530  -26.1833   18.4878  -26.0467   18.9966  -27.9704   19.2713  -27.2273   18.0607  -27.2818   18.5367  -25.2535   18.2980 -341.0274  -44.2479
  5.540  -26.4161   18.2291  -26.2799   18.7418  -28.1721   18.8928  -27.4190   17.7689  -27.4669   18.2124  -25.4801   18.0701 -333.4981  -44.3704
  5.550  -26.6328   17.9581  -26.4975   18.4749  -28.3492   18.5098  -27.5936   17.4688  -27.6331   17.8819  -25.6916   17.8298 -325.9895  -44.4902
  5.560  -26.8330   17.6763  -26.6991   18.1971  -28.5027   18.1242  -27.7511   17.1618  -27.7806   17.5467  -25.8877   17.5788 -318.5127  -44.6073
  5.570  -27.0165   17.3852  -26.8844   17.9100  -28.6336   17.7378  -27.8915   16.8490  -27.9100   17.2080  -26.0684   17.3183 -311.0777  -44.7216
  5.580  -27.1831   17.0860  -27.0534   17.6148  -28.7429   17.3519  -28.0151   16.5318  -28.0217   16.8672  -26.2335   17.0499 -303.6931  -44.8332
  5.590  -27.3327   16.7802  -27.2061   17.3129  -28.8317   16.9680  -28.1222   16.2114  -28.1161   16.5254  -26.3832   16.7748 -296.3665  -44.9421
  5.600  -27.4656   16.4691  -27.3424   17.0056  -28.9013   16.5870  -28.2131   15.8888  -28.1940   16.1835  -26.5176   16.4941 -289.1046  -45.0484
  5.610  -27.5819   16.1540  -27.4627   16.6941  -28.9527   16.2100  -28.2882   15.5651  -28.2558   15.8425  -26.6370   16.2092 -281.9130  -45.1520
  5.620  -27.6818   15.8360  -27.5673   16.3795  -28.9871   15.8379  -28.3480   15.2413  -28.3024   15.5034  -26.7417   15.9210 -274.7967  -45.2530
  5.630  -27.7658   15.5164  -27.6563   16.0628  -29.0055   15.4712  -28.3931   14.9183  -28.3343   15.1668  -26.8320   15.6306 -267.7596  -45.3514
  5.640  -27.8342   15.1960  -27.7304   15.7452  -29.0091   15.1105  -28.4240   14.5969  -28.3523   14.8335  -26.9084   15.3388 -260.8053  -45.4472
  5.650  -27.8876   14.8760  -27.7898   15.4275  -28.9988   14.7563  -28.4413   14.2778  -28.3571   14.5041  -26.9714   15.0465 -253.9367  -45.5405
  5.660  -27.9266   14.5571  -27.8352   15.1105  -28.9757   14.4091  -28.4456   13.9618  -28.3494   14.1792  -27.0214   14.7544 -247.1562  -45.6313
  5.670  -27.9517   14.2403  -27.8671   14.7951  -28.9406   14.0690  -28.4376   13.6495  -28.3299   13.8591  -27.0588   14.4633 -240.4659  -45.7197
  5.680  -27.9636   13.9262  -27.8860   14.4820  -28.8945   13.7362  -28.4179   13.3413  -28.2993   13.5444  -27.0843   14.1737 -233.8674  -45.8057
  5.690  -27.9629   13.6154  -27.8926   14.1717  -28.8381   13.4110  -28.3872   13.0377  -28.2583   13.2353  -27.0984   13.8863 -227.3620  -45.8892
  5.700  -27.9502   13.3086  -27.8874   13.8648  -28.7724   13.0934  -28.3461   12.7393  -28.2076   12.9322  -27.1015   13.6014 -220.9511  -45.9704
  5.710  -27.9263   13.0063  -27.8710   13.5619  -28.6979   12.7836  -28.2953   12.4462  -28.1478   12.6352  -27.0942   13.3197 -214.6355  -46.0493
  5.720  -27.8918   12.7088  -27.8441   13.2633  -28.6155   12.4814  -28.2354   12.1587  -28.0796   12.3446  -27.0771   13.0415 -208.4162  -46.1259
  5.730  -27.8473   12.4166  -27.8072   12.9695  -28.5258   12.1870  -28.1671   11.8772  -28.0035   12.0605  -27.0507   12.7670 -202.2939  -46.2002
  5.740  -27.7934   12.1299  -27.7610   12.6807  -28.4293   11.9002  -28.0908   11.6018  -27.9203   11.7830  -27.0154   12.4967 -196.2693  -46.2724
  5.750  -27.7309   11.8490  -27.7060   12.3973  -28.3267   11.6210  -28.0073   11.3325  -27.8303   11.5121  -26.9719   12.2308 -190.3431  -46.3423
  5.760  -27.6604   11.5741  -27.6428   12.1194  -28.2186   11.3494  -27.9171   11.0696  -27.7342   11.2479  -26.9205   11.9696 -184.5157  -46.4101
  5.770  -27.5824   11.3053  -27.5720   11.8473  -28.1053   11.0851  -27.8207   10.8131  -27.6324   10.9904  -26.8618   11.7131 -178.7878  -46.4758
  5.780  -27.4974   11.0428  -27.4941   11.5811  -27.9873   10.8282  -27.7187   10.5630  -27.5256   10.7396  -26.7963   11.4616 -173.1600  -46.5394
  5.790  -27.4061   10.7867  -27.4097   11.3208  -27.8652   10.5785  -27.6114   10.3194  -27.4140   10.4953  -26.7244   11.2152 -167.6328  -46.6011
  5.800  -27.3090   10.5369  -27.3191   11.0666  -27.7393   10.3358  -27.4995   10.0821  -27.2981   10.2577  -26.6465   10.9740 -162.2067  -46.6607
  5.810  -27.2065   10.2935  -27.2230   10.8185  -27.6100   10.1000  -27.3832    9.8511  -27.1785   10.0265  -26.5631   10.7381 -156.8823  -46.7183
  5.820  -27.0992   10.0565  -27.1218   10.5765  -27.4777    9.8710  -27.2631    9.6265  -27.0553    9.8018  -26.4746   10.5074 -151.6600  -46.7740
  5.830  -26.9874    9.8257  -27.0159   10.3406  -27.3426    9.6486  -27.1395    9.4080  -26.9290    9.5833  -26.3813   10.2821 -146.5403  -46.8279
  5.840  -26.8717    9.6013  -26.9056   10.1108  -27.2052    9.4326  -27.0127    9.1957  -26.8000    9.3709  -26.2837   10.0621 -141.5238  -46.8799
  5.850  -26.7523    9.3831  -26.7915    9.8870  -27.0656    9.2230  -26.8832    8.9893  -26.6685    9.1646  -26.1821    9.8474 -136.6108  -46.9301
  5.860  -26.6297    9.1709  -26.6739    9.6692  -26.9242    9.0195  -26.7512    8.7889  -26.5348    8.9643  -26.0769    9.6380 -131.8018  -46.9785
  5.870  -26.5042    8.9647  -26.5531    9.4573  -26.7812    8.8220  -26.6171    8.5942  -26.3992    8.7696  -25.9683    9.4339 -127.0971  -47.0253
  5.880  -26.3761    8.7645  -26.4294    9.2511  -26.6369    8.6303  -26.4810    8.4051  -26.2619    8.5807  -25.8567    9.2349 -122.4970  -47.0703
  5.890  -26.2458    8.5700  -26.3032    9.0506  -26.4914    8.4442  -26.3433    8.2216  -26.1233    8.3972  -25.7423    9.0411 -118.0018  -47.1136
  5.900  -26.1134    8.3811  -26.1747    8.8558  -26.3449    8.2637  -26.2043    8.0434  -25.9835    8.2191  -25.6255    8.8523 -113.6116  -47.1554
  5.910  -25.9794    8.1977  -26.0443    8.6664  -26.1977    8.0885  -26.0640    7.8704  -25.8427    8.0461  -25.5065    8.6686 -109.3265  -47.1956
  5.920  -25.8438    8.0197  -25.9121    8.4823  -26.0499    7.9184  -25.9228    7.7025  -25.7010    7.8782  -25.3855    8.4897 -105.1467  -47.2342
  5.930  -25.7070    7.8469  -25.7784    8.3035  -25.9017    7.7534  -25.7807    7.5396  -25.5588    7.7153  -25.2627    8.3155 -101.0719  -47.2714
  5.940  -25.5692    7.6792  -25.6435    8.1298  -25.7532    7.5933  -25.6381    7.3814  -25.4161    7.5571  -25.1384    8.1461  -97.1021  -47.3070
  5.950  -25.4305    7.5164  -25.5075    7.9611  -25.6046    7.4379  -25.4950    7.2279  -25.2730    7.4035  -25.0128    7.9813  -93.2370  -47.3413
  5.960  -25.2911    7.3585  -25.3705    7.7972  -25.4560    7.2870  -25.3516    7.0789  -25.1298    7.2544  -24.8860    7.8210  -89.4764  -47.3742
  5.970  -25.1512    7.2052  -25.2329    7.6380  -25.3074    7.1406  -25.2081    6.9342  -24.9865    7.1096  -24.7583    7.6650  -85.8197  -47.4057
  5.980  -25.0109    7.0564  -25.0947    7.4833  -25.1591    6.9985  -25.0644    6.7938  -24.8433    6.9691  -24.6297    7.5133  -82.2665  -47.4360
  5.990  -24.8704    6.9120  -24.9561    7.3332  -25.0110    6.8605  -24.9209    6.6575  -24.7002    6.8326  -24.5005    7.3658  -78.8162  -47.4649
  6.000  -24.7298    6.7718  -24.8172    7.1873  -24.8634    6.7265  -24.7775    6.5252  -24.5574    6.7000  -24.3708    7.2223  -75.4679  -47.4926
  6.010  -24.5892    6.6357  -24.6781    7.0456  -24.7162    6.5965  -24.6344    6.3967  -24.4149    6.5713  -24.2406    7.0828  -72.2210  -47.5192
  6.020  -24.4487    6.5036  -24.5391    6.9080  -24.5695    6.4701  -24.4917    6.2720  -24.2729    6.4462  -24.1102    6.9470  -69.0745  -47.5446
  6.030  -24.3084    6.3754  -24.4001    6.7743  -24.4235    6.3474  -24.3493    6.1508  -24.1313    6.3247  -23.9796    6.8151  -66.0273  -47.5688
  6.040  -24.1685    6.2509  -24.2612    6.6444  -24.2781    6.2282  -24.2075    6.0331  -23.9903    6.2067  -23.8489    6.6867  -63.0785  -47.5920
  6.050  -24.0289    6.1299  -24.1227    6.5182  -24.1335    6.1124  -24.0662    5.9188  -23.8499    6.0920  -23.7183    6.5618  -60.2267  -47.6142
  6.060  -23.8898    6.0125  -23.9844    6.3956  -23.9896    5.9999  -23.9256    5.8077  -23.7102    5.9805  -23.5878    6.4404  -57.4707  -47.6353
  6.070  -23.7512    5.8984  -23.8466    6.2764  -23.8466    5.8906  -23.7856    5.6997  -23.5711    5.8722  -23.4575    6.3222  -54.8092  -47.6554
  6.080  -23.6132    5.7876  -23.7093    6.1606  -23.7044    5.7843  -23.6464    5.5948  -23.4329    5.7668  -23.3274    6.2073  -52.2407  -47.6746
  6.090  -23.4758    5.6799  -23.5725    6.0480  -23.5631    5.6809  -23.5080    5.4928  -23.2955    5.6644  -23.1977    6.0955  -49.7637  -47.6929
  6.100  -23.3392    5.5753  -23.4363    5.9385  -23.4227    5.5805  -23.3703    5.3937  -23.1588    5.5647  -23.0684    5.9866  -47.3766  -47.7103
  6.110  -23.2032    5.4736  -23.3008    5.8321  -23.2833    5.4828  -23.2335    5.2973  -23.0231    5.4678  -22.9395    5.8807  -45.0778  -47.7269
  6.120  -23.0680    5.3747  -23.1660    5.7286  -23.1449    5.3877  -23.0975    5.2035  -22.8883    5.3735  -22.8112    5.7777  -42.8656  -47.7426
  6.130  -22.9337    5.2786  -23.0319    5.6279  -23.0074    5.2953  -22.9625    5.1123  -22.7543    5.2818  -22.6834    5.6773  -40.7381  -47.7576
  6.140  -22.8002    5.1851  -22.8985    5.5300  -22.8710    5.2053  -22.8284    5.0236  -22.6213    5.1925  -22.5561    5.5796  -38.6936  -47.7718
  6.150  -22.6675    5.0941  -22.7660    5.4347  -22.7356    5.1177  -22.6952    4.9372  -22.4893    5.1056  -22.4295    5.4845  -36.7303  -47.7853
  6.160  -22.5357    5.0057  -22.6343    5.3420  -22.6013    5.0325  -22.5630    4.8532  -22.3582    5.0210  -22.3036    5.3919  -34.8462  -47.7981
  6.170  -22.4049    4.9196  -22.5035    5.2517  -22.4680    4.9495  -22.4317    4.7714  -22.2282    4.9386  -22.1784    5.3017  -33.0393  -47.8103
  6.180  -22.2750    4.8358  -22.3735    5.1638  -22.3358    4.8688  -22.3015    4.6917  -22.0991    4.8583  -22.0539    5.2138  -31.3078  -47.8218
  6.190  -22.1460    4.7543  -22.2445    5.0783  -22.2046    4.7901  -22.1722    4.6142  -21.9710    4.7801  -21.9301    5.1282  -29.6497  -47.8327
  6.200  -22.0180    4.6749  -22.1163    4.9950  -22.0745    4.7134  -22.0439    4.5386  -21.8440    4.7039  -21.8071    5.0448  -28.0629  -47.8430
  6.210  -21.8909    4.5976  -21.9891    4.9138  -21.9456    4.6387  -21.9167    4.4650  -21.7179    4.6297  -21.6849    4.9635  -26.5455  -47.8527
  6.220  -21.7648    4.5223  -21.8629    4.8348  -21.8177    4.5659  -21.7905    4.3933  -21.5929    4.5573  -21.5635    4.8842  -25.0954  -47.8620
  6.230  -21.6398    4.4490  -21.7376    4.7578  -21.6909    4.4950  -21.6653    4.3234  -21.4689    4.4868  -21.4429    4.8069  -23.7106  -47.8707
  6.240  -21.5157    4.3776  -21.6132    4.6827  -21.5652    4.4258  -21.5411    4.2553  -21.3460    4.4180  -21.3232    4.7316  -22.3891  -47.8789
  6.250  -21.3926    4.3079  -21.4899    4.6095  -21.4405    4.3583  -21.4179    4.1888  -21.2241    4.3509  -21.2043    4.6581  -21.1288  -47.8867
  6.260  -21.2705    4.2401  -21.3675    4.5382  -21.3170    4.2925  -21.2958    4.1241  -21.1031    4.2854  -21.0863    4.5865  -19.9277  -47.8940
  6.270  -21.1494    4.1739  -21.2461    4.4686  -21.1945    4.2284  -21.1747    4.0609  -20.9833    4.2216  -20.9691    4.5165  -18.7839  -47.9009
  6.280  -21.0293    4.1094  -21.1257    4.4008  -21.0731    4.1658  -21.0547    3.9993  -20.8644    4.1592  -20.8528    4.4483  -17.6954  -47.9074
  6.290  -20.9103    4.0465  -21.0062    4.3346  -20.9528    4.1047  -20.9356    3.9391  -20.7466    4.0984  -20.7373    4.3817  -16.6602  -47.9135
  6.300  -20.7922    3.9851  -20.8878    4.2700  -20.8335    4.0450  -20.8176    3.8804  -20.6298    4.0390  -20.6228    4.3168  -15.6763  -47.9193
  6.310  -20.6751    3.9252  -20.7703    4.2070  -20.7153    3.9868  -20.7005    3.8232  -20.5140    3.9810  -20.5091    4.2533  -14.7419  -47.9247
  6.320  -20.5590    3.8668  -20.6538    4.1455  -20.5982    3.9299  -20.5845    3.7672  -20.3992    3.9244  -20.3963    4.1914  -13.8550  -47.9298
  6.330  -20.4439    3.8098  -20.5383    4.0854  -20.4821    3.8744  -20.4695    3.7126  -20.2854    3.8691  -20.2844    4.1309  -13.0139  -47.9346
  6.340  -20.3298    3.7541  -20.4237    4.0268  -20.3670    3.8202  -20.3555    3.6593  -20.1725    3.8151  -20.1734    4.0718  -12.2166  -47.9391
  6.350  -20.2167    3.6997  -20.3102    3.9695  -20.2530    3.7672  -20.2425    3.6072  -20.0607    3.7623  -20.0633    4.0140  -11.4615  -47.9433
  6.360  -20.1045    3.6466  -20.1976    3.9136  -20.1400    3.7154  -20.1304    3.5563  -19.9499    3.7106  -19.9540    3.9576  -10.7467  -47.9472
  6.370  -19.9934    3.5948  -20.0860    3.8590  -20.0280    3.6648  -20.0194    3.5066  -19.8400    3.6602  -19.8457    3.9025  -10.0706  -47.9509
  6.380  -19.8832    3.5441  -19.9753    3.8056  -19.9170    3.6154  -19.9093    3.4580  -19.7311    3.6109  -19.7382    3.8486   -9.4315  -47.9544
  6.390  -19.7739    3.4946  -19.8656    3.7534  -19.8070    3.5670  -19.8002    3.4105  -19.6231    3.5626  -19.6316    3.7960   -8.8278  -47.9576
  6.400  -19.6656    3.4463  -19.7568    3.7024  -19.6980    3.5197  -19.6920    3.3640  -19.5161    3.5155  -19.5258    3.7445   -8.2579  -47.9607
  6.410  -19.5582    3.3990  -19.6489    3.6525  -19.5900    3.4734  -19.5847    3.3186  -19.4100    3.4693  -19.4209    3.6941   -7.7203  -47.9635
  6.420  -19.4518    3.3528  -19.5420    3.6037  -19.4829    3.4282  -19.4784    3.2742  -19.3049    3.4242  -19.3169    3.6448   -7.2134  -47.9662
  6.430  -19.3463    3.3076  -19.4360    3.5560  -19.3768    3.3839  -19.3731    3.2307  -19.2007    3.3800  -19.2137    3.5966   -6.7358  -47.9686
  6.440  -19.2417    3.2634  -19.3310    3.5094  -19.2716    3.3406  -19.2686    3.1882  -19.0974    3.3368  -19.1114    3.5495   -6.2862  -47.9709
  6.450  -19.1381    3.2201  -19.2268    3.4637  -19.1674    3.2982  -19.1651    3.1466  -18.9950    3.2944  -19.0099    3.5033   -5.8632  -47.9731
  6.460  -19.0353    3.1778  -19.1236    3.4191  -19.0641    3.2567  -19.0624    3.1059  -18.8935    3.2530  -18.9093    3.4582   -5.4654  -47.9751
  6.470  -18.9334    3.1364  -19.0212    3.3754  -18.9617    3.2160  -18.9607    3.0660  -18.7928    3.2124  -18.8095    3.4139   -5.0916  -47.9770
  6.480  -18.8324    3.0959  -18.9197    3.3326  -18.8602    3.1762  -18.8598    3.0270  -18.6931    3.1727  -18.7105    3.3707   -4.7406  -47.9787
  6.490  -18.7323    3.0563  -18.8191    3.2907  -18.7596    3.1373  -18.7598    2.9888  -18.5942    3.1338  -18.6123    3.3283   -4.4112  -47.9803
  6.500  -18.6330    3.0175  -18.7193    3.2497  -18.6599    3.0991  -18.6607    2.9514  -18.4961    3.0956  -18.5150    3.2868   -4.1023  -47.9818
  6.510  -18.5346    2.9794  -18.6205    3.2095  -18.5611    3.0617  -18.5624    2.9148  -18.3990    3.0583  -18.4184    3.2461   -3.8128  -47.9832
  6.520  -18.4371    2.9422  -18.5224    3.1701  -18.4632    3.0250  -18.4650    2.8789  -18.3026    3.0216  -18.3227    3.2063   -3.5416  -47.9845
  6.530  -18.3403    2.9058  -18.4252    3.1316  -18.3661    2.9891  -18.3684    2.8437  -18.2071    2.9857  -18.2277    3.1672   -3.2878  -47.9858
  6.540  -18.2445    2.8701  -18.3288    3.0938  -18.2698    2.9539  -18.2726    2.8092  -18.1124    2.9506  -18.1335    3.1290   -3.0504  -47.9869
  6.550  -18.1494    2.8351  -18.2333    3.0568  -18.1744    2.9194  -18.1777    2.7754  -18.0185    2.9161  -18.0401    3.0915   -2.8285  -47.9879
  6.560  -18.0551    2.8008  -18.1386    3.0205  -18.0798    2.8855  -18.0835    2.7423  -17.9254    2.8822  -17.9475    3.0547   -2.6211  -47.9889
  6.570  -17.9617    2.7672  -18.0446    2.9849  -17.9861    2.8523  -17.9902    2.7098  -17.8331    2.8491  -17.8556    3.0187   -2.4276  -47.9898
  6.580  -17.8690    2.7342  -17.9515    2.9501  -17.8931    2.8198  -17.8976    2.6780  -17.7416    2.8165  -17.7645    2.9834   -2.2470  -47.9906
  6.590  -17.7772    2.7019  -17.8592    2.9159  -17.8009    2.7878  -17.8059    2.6468  -17.6508    2.7846  -17.6741    2.9487   -2.0786  -47.9914
  6.600  -17.6861    2.6703  -17.7676    2.8823  -17.7096    2.7565  -17.7149    2.6162  -17.5609    2.7533  -17.5845    2.9147   -1.9217  -47.9921
  6.610  -17.5957    2.6392  -17.6768    2.8494  -17.6190    2.7258  -17.6246    2.5861  -17.4716    2.7225  -17.4956    2.8814   -1.7756  -47.9927
  6.620  -17.5061    2.6088  -17.5868    2.8172  -17.5291    2.6956  -17.5351    2.5566  -17.3832    2.6924  -17.4074    2.8487   -1.6397  -47.9933
  6.630  -17.4173    2.5789  -17.4975    2.7855  -17.4401    2.6660  -17.4464    2.5277  -17.2954    2.6628  -17.3199    2.8166   -1.5133  -47.9939
  6.640  -17.3292    2.5496  -17.4090    2.7545  -17.3517    2.6369  -17.3584    2.4993  -17.2084    2.6337  -17.2332    2.7851   -1.3957  -47.9944
  6.650  -17.2419    2.5208  -17.3212    2.7240  -17.2642    2.6084  -17.2711    2.4715  -17.1221    2.6051  -17.1471    2.7542   -1.2866  -47.9949
  6.660  -17.1552    2.4926  -17.2341    2.6940  -17.1773    2.5804  -17.1846    2.4441  -17.0365    2.5771  -17.0618    2.7238   -1.1853  -47.9953
  6.670  -17.0693    2.4649  -17.1477    2.6647  -17.0912    2.5529  -17.0987    2.4173  -16.9516    2.5496  -16.9771    2.6940   -1.0913  -47.9957
  6.680  -16.9841    2.4377  -17.0621    2.6358  -17.0058    2.5258  -17.0136    2.3909  -16.8675    2.5226  -16.8931    2.6648   -1.0042  -47.9961
  6.690  -16.8996    2.4110  -16.9772    2.6075  -16.9211    2.4993  -16.9292    2.3651  -16.7840    2.4960  -16.8097    2.6360   -0.9235  -47.9964
  6.700  -16.8158    2.3848  -16.8929    2.5797  -16.8371    2.4732  -16.8454    2.3396  -16.7011    2.4699  -16.7271    2.6078   -0.8488  -47.9967
  6.710  -16.7326    2.3590  -16.8093    2.5523  -16.7537    2.4476  -16.7623    2.3147  -16.6190    2.4443  -16.6451    2.5801   -0.7796  -47.9970
  6.720  -16.6502    2.3338  -16.7265    2.5255  -16.6711    2.4224  -16.6799    2.2901  -16.5375    2.4191  -16.5637    2.5529   -0.7157  -47.9973
  6.730  -16.5684    2.3089  -16.6442    2.4991  -16.5891    2.3977  -16.5982    2.2660  -16.4567    2.3943  -16.4830    2.5261   -0.6566  -47.9975
  6.740  -16.4872    2.2845  -16.5627    2.4732  -16.5078    2.3733  -16.5171    2.2424  -16.3765    2.3700  -16.4029    2.4998   -0.6020  -47.9977
  6.750  -16.4067    2.2606  -16.4818    2.4478  -16.4272    2.3494  -16.4366    2.2191  -16.2970    2.3460  -16.3234    2.4740   -0.5517  -47.9979
  6.760  -16.3269    2.2370  -16.4015    2.4227  -16.3472    2.3259  -16.3568    2.1962  -16.2180    2.3225  -16.2446    2.4486   -0.5052  -47.9981
  6.770  -16.2477    2.2139  -16.3219    2.3981  -16.2678    2.3028  -16.2777    2.1737  -16.1398    2.2994  -16.1664    2.4236   -0.4624  -47.9983
  6.780  -16.1691    2.1911  -16.2429    2.3739  -16.1891    2.2801  -16.1991    2.1516  -16.0621    2.2766  -16.0887    2.3991   -0.4230  -47.9984
  6.790  -16.0911    2.1688  -16.1646    2.3502  -16.1110    2.2577  -16.1212    2.1299  -15.9850    2.2542  -16.0117    2.3750   -0.3867  -47.9986
  6.800  -16.0138    2.1468  -16.0869    2.3268  -16.0335    2.2357  -16.0439    2.1085  -15.9086    2.2322  -15.9353    2.3512   -0.3533  -47.9987
  6.810  -15.9370    2.1252  -16.0097    2.3038  -15.9567    2.2141  -15.9672    2.0875  -15.8327    2.2106  -15.8595    2.3279   -0.3226  -47.9988
  6.820  -15.8609    2.1039  -15.9332    2.2812  -15.8804    2.1928  -15.8910    2.0668  -15.7574    2.1893  -15.7842    2.3049   -0.2944  -47.9989
  6.830  -15.7853    2.0830  -15.8573    2.2589  -15.8047    2.1719  -15.8155    2.0465  -15.6827    2.1683  -15.7095    2.2824   -0.2685  -47.9990
  6.840  -15.7103    2.0625  -15.7819    2.2371  -15.7296    2.1513  -15.7405    2.0265  -15.6086    2.1477  -15.6354    2.2602   -0.2447  -47.9991
  6.850  -15.6359    2.0422  -15.7072    2.2155  -15.6551    2.1310  -15.6662    2.0068  -15.5351    2.1274  -15.5618    2.2383   -0.2229  -47.9992
  6.860  -15.5621    2.0223  -15.6330    2.1943  -15.5812    2.1111  -15.5924    1.9874  -15.4621    2.1074  -15.4888    2.2168   -0.2029  -47.9993
  6.870  -15.4888    2.0028  -15.5594    2.1735  -15.5078    2.0914  -15.5191    1.9684  -15.3896    2.0877  -15.4164    2.1956   -0.1846  -47.9994
  6.880  -15.4161    1.9835  -15.4863    2.1530  -15.4350    2.0721  -15.4464    1.9496  -15.3177    2.0684  -15.3445    2.1748   -0.1679  -47.9994
  6.890  -15.3440    1.9646  -15.4138    2.1328  -15.3628    2.0531  -15.3743    1.9312  -15.2464    2.0493  -15.2731    2.1543   -0.1525  -47.9995
  6.900  -15.2723    1.9459  -15.3418    2.1129  -15.2911    2.0343  -15.3027    1.9130  -15.1756    2.0305  -15.2023    2.1341   -0.1385  -47.9995
  6.910  -15.2013    1.9276  -15.2704    2.0933  -15.2199    2.0158  -15.2316    1.8951  -15.1053    2.0120  -15.1319    2.1143   -0.1257  -47.9996
  6.920  -15.1307    1.9095  -15.1996    2.0741  -15.1493    1.9977  -15.1611    1.8775  -15.0355    1.9938  -15.0621    2.0947   -0.1141  -47.9996
  6.930  -15.0607    1.8917  -15.1292    2.0551  -15.0792    1.9798  -15.0911    1.8602  -14.9663    1.9759  -14.9928    2.0755   -0.1034  -47.9997
  6.940  -14.9912    1.8742  -15.0594    2.0364  -15.0096    1.9621  -15.0216    1.8431  -14.8976    1.9582  -14.9241    2.0565   -0.0937  -47.9997
  6.950  -14.9222    1.8570  -14.9901    2.0180  -14.9405    1.9447  -14.9526    1.8263  -14.8294    1.9408  -14.8558    2.0378   -0.0848  -47.9997
  6.960  -14.8538    1.8400  -14.9213    1.9999  -14.8720    1.9276  -14.8841    1.8097  -14.7616    1.9237  -14.7880    2.0194   -0.0767  -47.9997
  6.970  -14.7858    1.8233  -14.8530    1.9820  -14.8039    1.9108  -14.8161    1.7934  -14.6944    1.9068  -14.7207    2.0013   -0.0694  -47.9998
  6.980  -14.7183    1.8068  -14.7852    1.9645  -14.7364    1.8941  -14.7487    1.7773  -14.6277    1.8901  -14.6539    1.9834   -0.0627  -47.9998
  6.990  -14.6513    1.7906  -14.7179    1.9471  -14.6693    1.8778  -14.6817    1.7615  -14.5614    1.8737  -14.5876    1.9659   -0.0567  -47.9998
  7.000  -14.5848    1.7746  -14.6512    1.9301  -14.6028    1.8616  -14.6151    1.7459  -14.4956    1.8576  -14.5217    1.9485   -0.0511  -47.9998
  7.010  -14.5188    1.7588  -14.5848    1.9132  -14.5367    1.8457  -14.5491    1.7305  -14.4303    1.8416  -14.4563    1.9315   -0.0461  -47.9999
  7.020  -14.4533    1.7433  -14.5190    1.8967  -14.4711    1.8300  -14.4836    1.7154  -14.3654    1.8259  -14.3914    1.9146   -0.0416  -47.9999
  7.030  -14.3882    1.7280  -14.4536    1.8803  -14.4059    1.8146  -14.4185    1.7004  -14.3011    1.8104  -14.3269    1.8980   -0.0375  -47.9999
  7.040  -14.3236    1.7130  -14.3887    1.8642  -14.3412    1.7993  -14.3538    1.6857  -14.2371    1.7952  -14.2629    1.8817   -0.0337  -47.9999
  7.050  -14.2594    1.6981  -14.3243    1.8483  -14.2770    1.7843  -14.2897    1.6712  -14.1737    1.7801  -14.1994    1.8656   -0.0304  -47.9999
  7.060  -14.1957    1.6835  -14.2603    1.8327  -14.2133    1.7695  -14.2259    1.6569  -14.1106    1.7653  -14.1362    1.8497   -0.0273  -47.9999
  7.070  -14.1325    1.6691  -14.1968    1.8173  -14.1500    1.7549  -14.1627    1.6428  -14.0480    1.7506  -14.0736    1.8340   -0.0246  -47.9999
  7.080  -14.0697    1.6549  -14.1337    1.8020  -14.0871    1.7405  -14.0998    1.6289  -13.9859    1.7362  -14.0113    1.8186   -0.0221  -47.9999
  7.090  -14.0073    1.6408  -14.0711    1.7870  -14.0247    1.7262  -14.0375    1.6152  -13.9242    1.7219  -13.9495    1.8034   -0.0198  -47.9999
  7.100  -13.9454    1.6270  -14.0089    1.7722  -13.9627    1.7122  -13.9755    1.6017  -13.8629    1.7079  -13.8881    1.7884   -0.0178  -47.9999
  7.110  -13.8839    1.6134  -13.9471    1.7577  -13.9011    1.6984  -13.9140    1.5884  -13.8020    1.6940  -13.8271    1.7735   -0.0159  -48.0000
  7.120  -13.8228    1.6000  -13.8858    1.7433  -13.8400    1.6847  -13.8528    1.5753  -13.7415    1.6804  -13.7666    1.7589   -0.0143  -48.0000
  7.130  -13.7621    1.5867  -13.8249    1.7291  -13.7793    1.6713  -13.7922    1.5623  -13.6815    1.6669  -13.7065    1.7445   -0.0128  -48.0000
  7.140  -13.7019    1.5736  -13.7644    1.7151  -13.7190    1.6580  -13.7319    1.5495  -13.6219    1.6536  -13.6467    1.7303   -0.0114  -48.0000
  7.150  -13.6420    1.5607  -13.7043    1.7012  -13.6591    1.6449  -13.6720    1.5369  -13.5626    1.6404  -13.5874    1.7163   -0.0102  -48.0000
  7.160  -13.5826    1.5480  -13.6446    1.6876  -13.5996    1.6320  -13.6125    1.5245  -13.5038    1.6275  -13.5285    1.7025   -0.0091  -48.0000
  7.170  -13.5236    1.5355  -13.5854    1.6742  -13.5405    1.6192  -13.5535    1.5122  -13.4454    1.6147  -13.4699    1.6888   -0.0082  -48.0000
  7.180  -13.4649    1.5231  -13.5265    1.6609  -13.4818    1.6066  -13.4948    1.5001  -13.3873    1.6021  -13.4118    1.6754   -0.0073  -48.0000
  7.190  -13.4067    1.5109  -13.4680    1.6478  -13.4235    1.5942  -13.4365    1.4881  -13.3296    1.5896  -13.3540    1.6621   -0.0065  -48.0000
  7.200  -13.3489    1.4989  -13.4099    1.6349  -13.3656    1.5819  -13.3786    1.4763  -13.2724    1.5773  -13.2966    1.6490   -0.0058  -48.0000
  7.210  -13.2914    1.4870  -13.3523    1.6221  -13.3081    1.5698  -13.3211    1.4647  -13.2155    1.5652  -13.2396    1.6360   -0.0052  -48.0000
  7.220  -13.2343    1.4752  -13.2950    1.6095  -13.2510    1.5578  -13.2640    1.4532  -13.1589    1.5532  -13.1830    1.6233   -0.0046  -48.0000
  7.230  -13.1776    1.4637  -13.2380    1.5971  -13.1942    1.5460  -13.2073    1.4419  -13.1028    1.5414  -13.1267    1.6107   -0.0041  -48.0000
  7.240  -13.1212    1.4523  -13.1815    1.5849  -13.1378    1.5344  -13.1509    1.4307  -13.0470    1.5297  -13.0708    1.5982   -0.0036  -48.0000
  7.250  -13.0653    1.4410  -13.1253    1.5727  -13.0818    1.5229  -13.0949    1.4197  -12.9916    1.5182  -13.0153    1.5859   -0.0032  -48.0000
  7.260  -13.0097    1.4299  -13.0695    1.5608  -13.0262    1.5115  -13.0392    1.4088  -12.9365    1.5068  -12.9601    1.5738   -0.0029  -48.0000
  7.270  -12.9544    1.4189  -13.0140    1.5490  -12.9709    1.5003  -12.9839    1.3980  -12.8818    1.4955  -12.9053    1.5618   -0.0026  -48.0000
  7.280  -12.8995    1.4080  -12.9589    1.5373  -12.9159    1.4892  -12.9290    1.3874  -12.8274    1.4844  -12.8509    1.5500   -0.0023  -48.0000
  7.290  -12.8450    1.3973  -12.9042    1.5258  -12.8614    1.4782  -12.8744    1.3769  -12.7734    1.4734  -12.7967    1.5383   -0.0020  -48.0000
  7.300  -12.7908    1.3867  -12.8498    1.5144  -12.8071    1.4674  -12.8202    1.3665  -12.7198    1.4626  -12.7430    1.5268   -0.0018  -48.0000
  7.310  -12.7370    1.3763  -12.7958    1.5032  -12.7532    1.4567  -12.7663    1.3563  -12.6664    1.4519  -12.6895    1.5154   -0.0016  -48.0000
  7.320  -12.6835    1.3660  -12.7421    1.4921  -12.6997    1.4462  -12.7128    1.3462  -12.6135    1.4413  -12.6364    1.5042   -0.0014  -48.0000
  7.330  -12.6303    1.3558  -12.6888    1.4812  -12.6465    1.4358  -12.6595    1.3362  -12.5608    1.4309  -12.5837    1.4931   -0.0012  -48.0000
  7.340  -12.5775    1.3458  -12.6358    1.4704  -12.5936    1.4255  -12.6067    1.3264  -12.5085    1.4206  -12.5312    1.4821   -0.0011  -48.0000
  7.350  -12.5250    1.3359  -12.5831    1.4597  -12.5411    1.4153  -12.5541    1.3166  -12.4565    1.4104  -12.4791    1.4713   -0.0010  -48.0000
  7.360  -12.4728    1.3261  -12.5308    1.4491  -12.4889    1.4053  -12.5019    1.3070  -12.4048    1.4003  -12.4274    1.4606   -0.0009  -48.0000
  7.370  -12.4210    1.3164  -12.4788    1.4387  -12.4370    1.3953  -12.4500    1.2975  -12.3534    1.3904  -12.3759    1.4500   -0.0008  -48.0000
  7.380  -12.3694    1.3068  -12.4271    1.4284  -12.3854    1.3855  -12.3985    1.2882  -12.3024    1.3805  -12.3247    1.4396   -0.0007  -48.0000
  7.390  -12.3182    1.2974  -12.3757    1.4182  -12.3342    1.3758  -12.3472    1.2789  -12.2517    1.3708  -12.2739    1.4293   -0.0006  -48.0000
  7.400  -12.2673    1.2880  -12.3247    1.4082  -12.2833    1.3663  -12.2963    1.2697  -12.2012    1.3612  -12.2234    1.4191   -0.0005  -48.0000
  7.410  -12.2168    1.2788  -12.2739    1.3982  -12.2326    1.3568  -12.2456    1.2607  -12.1511    1.3517  -12.1732    1.4090   -0.0005  -48.0000
  7.420  -12.1665    1.2697  -12.2235    1.3884  -12.1823    1.3474  -12.1953    1.2518  -12.1013    1.3424  -12.1233    1.3990   -0.0004  -48.0000
  7.430  -12.1165    1.2607  -12.1734    1.3787  -12.1323    1.3382  -12.1453    1.2429  -12.0518    1.3331  -12.0736    1.3892   -0.0004  -48.0000
  7.440  -12.0669    1.2518  -12.1236    1.3691  -12.0826    1.3290  -12.0956    1.2342  -12.0026    1.3239  -12.0243    1.3795   -0.0003  -48.0000
  7.450  -12.0175    1.2431  -12.0741    1.3596  -12.0332    1.3200  -12.0462    1.2256  -11.9537    1.3149  -11.9753    1.3699   -0.0003  -48.0000
  7.460  -11.9684    1.2344  -12.0249    1.3503  -11.9841    1.3111  -11.9971    1.2171  -11.9051    1.3059  -11.9266    1.3604   -0.0002  -48.0000
  7.470  -11.9196    1.2258  -11.9760    1.3410  -11.9353    1.3022  -11.9482    1.2086  -11.8567    1.2971  -11.8781    1.3510   -0.0002  -48.0000
  7.480  -11.8712    1.2173  -11.9273    1.3318  -11.8868    1.2935  -11.8997    1.2003  -11.8087    1.2883  -11.8300    1.3417   -0.0002  -48.0000
  7.490  -11.8230    1.2090  -11.8790    1.3228  -11.8385    1.2849  -11.8515    1.1921  -11.7609    1.2797  -11.7821    1.3326   -0.0002  -48.0000
  7.500  -11.7750    1.2007  -11.8310    1.3139  -11.7906    1.2764  -11.8035    1.1840  -11.7134    1.2711  -11.7345    1.3235   -0.0002  -48.0000
  7.510  -11.7274    1.1925  -11.7832    1.3050  -11.7429    1.2679  -11.7558    1.1759  -11.6662    1.2627  -11.6872    1.3146   -0.0001  -48.0000
  7.520  -11.6800    1.1844  -11.7357    1.2963  -11.6955    1.2596  -11.7084    1.1680  -11.6193    1.2543  -11.6402    1.3057   -0.0001  -48.0000
  7.530  -11.6330    1.1764  -11.6885    1.2876  -11.6484    1.2513  -11.6613    1.1602  -11.5726    1.2461  -11.5934    1.2970   -0.0001  -48.0000
  7.540  -11.5861    1.1685  -11.6416    1.2791  -11.6015    1.2432  -11.6144    1.1524  -11.5262    1.2379  -11.5469    1.2883   -0.0001  -48.0000
  7.550  -11.5396    1.1607  -11.5950    1.2706  -11.5549    1.2351  -11.5678    1.1447  -11.4801    1.2298  -11.5007    1.2798   -0.0001  -48.0000
  7.560  -11.4933    1.1530  -11.5486    1.2623  -11.5086    1.2272  -11.5215    1.1371  -11.4342    1.2218  -11.4547    1.2713   -0.0001  -48.0000
  7.570  -11.4473    1.1454  -11.5025    1.2540  -11.4626    1.2193  -11.4754    1.1296  -11.3886    1.2139  -11.4090    1.2629   -0.0001  -48.0000
  7.580  -11.4016    1.1378  -11.4566    1.2458  -11.4168    1.2115  -11.4296    1.1222  -11.3433    1.2061  -11.3636    1.2547   -0.0001  -48.0000
  7.590  -11.3561    1.1304  -11.4111    1.2377  -11.3713    1.2038  -11.3841    1.1149  -11.2982    1.1984  -11.3184    1.2465   -0.0001  -48.0000
  7.600  -11.3108    1.1230  -11.3657    1.2298  -11.3260    1.1962  -11.3388    1.1077  -11.2534    1.1907  -11.2735    1.2384   -0.0001  -48.0000
  7.610  -11.2659    1.1157  -11.3207    1.2219  -11.2810    1.1886  -11.2938    1.1005  -11.2088    1.1832  -11.2288    1.2304   -0.0001  -48.0000
  7.620  -11.2211    1.1085  -11.2759    1.2140  -11.2362    1.1812  -11.2490    1.0934  -11.1645    1.1757  -11.1844    1.2225   -0.0001  -48.0000
  7.630  -11.1766    1.1014  -11.2313    1.2063  -11.1917    1.1738  -11.2045    1.0864  -11.1204    1.1683  -11.1402    1.2147   -0.0001  -48.0000
  7.640  -11.1324    1.0943  -11.1870    1.1987  -11.1474    1.1665  -11.1602    1.0795  -11.0765    1.1610  -11.0962    1.2069   -0.0002  -48.0000
  7.650  -11.0884    1.0873  -11.1429    1.1911  -11.1034    1.1593  -11.1162    1.0726  -11.0329    1.1537  -11.0525    1.1993   -0.0002  -48.0000
  7.660  -11.0447    1.0805  -11.0991    1.1836  -11.0596    1.1521  -11.0724    1.0659  -10.9895    1.1466  -11.0091    1.1917   -0.0002  -48.0000
  7.670  -11.0012    1.0736  -11.0555    1.1762  -11.0161    1.1451  -11.0288    1.0592  -10.9464    1.1395  -10.9658    1.1842   -0.0002  -48.0000
  7.680  -10.9579    1.0669  -11.0122    1.1689  -10.9727    1.1381  -10.9855    1.0525  -10.9035    1.1325  -10.9228    1.1768   -0.0003  -48.0000
  7.690  -10.9148    1.0602  -10.9691    1.1616  -10.9297    1.1312  -10.9424    1.0460  -10.8608    1.1256  -10.8801    1.1695   -0.0003  -48.0000
  7.700  -10.8720    1.0537  -10.9262    1.1545  -10.8868    1.1243  -10.8996    1.0395  -10.8184    1.1187  -10.8375    1.1623   -0.0004  -48.0000
  7.710  -10.8294    1.0471  -10.8836    1.1474  -10.8442    1.1176  -10.8569    1.0331  -10.7762    1.1119  -10.7952    1.1551   -0.0004  -48.0000
  7.720  -10.7871    1.0407  -10.8412    1.1404  -10.8018    1.1109  -10.8145    1.0268  -10.7342    1.1052  -10.7532    1.1480   -0.0005  -48.0000
  7.730  -10.7450    1.0343  -10.7990    1.1334  -10.7596    1.1043  -10.7724    1.0205  -10.6924    1.0986  -10.7113    1.1410   -0.0006  -48.0000
  7.740  -10.7031    1.0280  -10.7571    1.1266  -10.7177    1.0977  -10.7304    1.0143  -10.6509    1.0920  -10.6697    1.1341   -0.0007  -48.0000
  7.750  -10.6614    1.0218  -10.7154    1.1198  -10.6760    1.0912  -10.6887    1.0082  -10.6095    1.0855  -10.6282    1.1272   -0.0008  -48.0000
  7.760  -10.6199    1.0156  -10.6739    1.1131  -10.6345    1.0848  -10.6472    1.0021  -10.5684    1.0791  -10.5870    1.1204   -0.0010  -48.0000
  7.770  -10.5786    1.0095  -10.6326    1.1064  -10.5932    1.0785  -10.6059    0.9961  -10.5275    1.0727  -10.5461    1.1137   -0.0011  -48.0000
  7.780  -10.5376    1.0035  -10.5915    1.0998  -10.5521    1.0722  -10.5648    0.9902  -10.4868    1.0664  -10.5053    1.1071   -0.0013  -48.0000
  7.790  -10.4968    0.9975  -10.5507    1.0933  -10.5112    1.0660  -10.5239    0.9843  -10.4464    1.0602  -10.4647    1.1005   -0.0015  -48.0000
  7.800  -10.4561    0.9916  -10.5101    1.0869  -10.4706    1.0599  -10.4833    0.9785  -10.4061    1.0540  -10.4243    1.0940   -0.0017  -48.0000
  7.810  -10.4157    0.9858  -10.4696    1.0805  -10.4301    1.0538  -10.4428    0.9728  -10.3660    1.0479  -10.3842    1.0876   -0.0020  -48.0000
  7.820  -10.3755    0.9800  -10.4294    1.0742  -10.3899    1.0478  -10.4026    0.9671  -10.3261    1.0419  -10.3442    1.0812   -0.0023  -48.0000
  7.830  -10.3355    0.9743  -10.3894    1.0680  -10.3498    1.0419  -10.3625    0.9615  -10.2865    1.0359  -10.3045    1.0749   -0.0027  -48.0000
  7.840  -10.2957    0.9687  -10.3496    1.0618  -10.3100    1.0360  -10.3227    0.9559  -10.2470    1.0300  -10.2649    1.0687   -0.0031  -48.0000
  7.850  -10.2561    0.9631  -10.3100    1.0557  -10.2703    1.0302  -10.2831    0.9504  -10.2077    1.0242  -10.2256    1.0625   -0.0036  -48.0000
  7.860  -10.2167    0.9576  -10.2706    1.0496  -10.2309    1.0244  -10.2436    0.9450  -10.1687    1.0184  -10.1864    1.0564   -0.0042  -48.0000
  7.870  -10.1775    0.9521  -10.2314    1.0436  -10.1916    1.0187  -10.2044    0.9396  -10.1298    1.0127  -10.1474    1.0504   -0.0049  -48.0000
  7.880  -10.1384    0.9467  -10.1924    1.0377  -10.1526    1.0131  -10.1653    0.9343  -10.0911    1.0070  -10.1087    1.0444   -0.0056  -48.0000
  7.890  -10.0996    0.9414  -10.1536    1.0319  -10.1137    1.0075  -10.1264    0.9291  -10.0526    1.0014  -10.0701    1.0385   -0.0065  -48.0000
  7.900  -10.0609    0.9361  -10.1150    1.0261  -10.0750    1.0020  -10.0877    0.9239  -10.0142    0.9959  -10.0317    1.0327   -0.0075  -48.0000
  7.910  -10.0225    0.9309  -10.0766    1.0203  -10.0365    0.9965  -10.0493    0.9187   -9.9761    0.9904   -9.9934    1.0269   -0.0087  -48.0000
  7.920   -9.9842    0.9257  -10.0383    1.0147   -9.9982    0.9911  -10.0109    0.9136   -9.9381    0.9850   -9.9554    1.0212   -0.0100  -48.0000
  7.930   -9.9461    0.9206  -10.0003    1.0090   -9.9600    0.9858   -9.9728    0.9086   -9.9004    0.9796   -9.9175    1.0156   -0.0115  -48.0000
  7.940   -9.9082    0.9156   -9.9624    1.0035   -9.9221    0.9805   -9.9349    0.9036   -9.8628    0.9743   -9.8799    1.0100   -0.0132  -48.0000
  7.950   -9.8704    0.9106   -9.9247    0.9980   -9.8843    0.9753   -9.8971    0.8987   -9.8253    0.9691   -9.8424    1.0044   -0.0152  -48.0000
  7.960   -9.8328    0.9056   -9.8872    0.9925   -9.8467    0.9701   -9.8595    0.8939   -9.7881    0.9639   -9.8050    0.9990   -0.0174  -48.0000
  7.970   -9.7954    0.9007   -9.8499    0.9871   -9.8092    0.9650   -9.8221    0.8891   -9.7510    0.9587   -9.7679    0.9935   -0.0200  -48.0001
  7.980   -9.7582    0.8959   -9.8127    0.9818   -9.7720    0.9599   -9.7848    0.8843   -9.7141    0.9537   -9.7309    0.9882   -0.0230  -48.0001
  7.990   -9.7212    0.8911   -9.7758    0.9765   -9.7349    0.9549   -9.7478    0.8796   -9.6774    0.9486   -9.6941    0.9829   -0.0263  -48.0001
  8.000   -9.6843    0.8864   -9.7390    0.9713   -9.6980    0.9500   -9.7109    0.8750   -9.6408    0.9436   -9.6574    0.9776   -0.0301  -48.0001
  8.010   -9.6475    0.8817   -9.7023    0.9661   -9.6612    0.9451   -9.6741    0.8704   -9.6044    0.9387   -9.6210    0.9725   -0.0345  -48.0001
  8.020   -9.6110    0.8771   -9.6659    0.9610   -9.6246    0.9403   -9.6375    0.8658   -9.5682    0.9339   -9.5846    0.9673   -0.0394  -48.0001
  8.030   -9.5746    0.8726   -9.6296    0.9560   -9.5882    0.9355   -9.6011    0.8613   -9.5321    0.9290   -9.5485    0.9623   -0.0450  -48.0001
  8.040   -9.5383    0.8681   -9.5935    0.9510   -9.5519    0.9308   -9.5649    0.8569   -9.4961    0.9243   -9.5125    0.9572   -0.0514  -48.0001
  8.050   -9.5023    0.8636   -9.5575    0.9460   -9.5158    0.9261   -9.5288    0.8525   -9.4604    0.9196   -9.4766    0.9523   -0.0586  -48.0002
  8.060   -9.4663    0.8592   -9.5217    0.9411   -9.4798    0.9215   -9.4928    0.8482   -9.4248    0.9149   -9.4409    0.9474   -0.0667  -48.0002
  8.070   -9.4306    0.8549   -9.4861    0.9363   -9.4440    0.9169   -9.4571    0.8439   -9.3893    0.9103   -9.4054    0.9425   -0.0760  -48.0002
  8.080   -9.3949    0.8506   -9.4506    0.9315   -9.4083    0.9124   -9.4214    0.8397   -9.3540    0.9057   -9.3700    0.9377   -0.0864  -48.0003
  8.090   -9.3595    0.8463   -9.4152    0.9267   -9.3728    0.9079   -9.3860    0.8355   -9.3188    0.9012   -9.3348    0.9330   -0.0982  -48.0003
  8.100   -9.3241    0.8421   -9.3801    0.9221   -9.3374    0.9035   -9.3506    0.8313   -9.2838    0.8968   -9.2997    0.9283   -0.1115  -48.0003
  8.110   -9.2889    0.8380   -9.3451    0.9174   -9.3022    0.8991   -9.3154    0.8273   -9.2489    0.8924   -9.2648    0.9237   -0.1265  -48.0004
  8.120   -9.2539    0.8339   -9.3102    0.9128   -9.2672    0.8948   -9.2804    0.8232   -9.2142    0.8880   -9.2300    0.9191   -0.1434  -48.0004
  8.130   -9.2190    0.8298   -9.2755    0.9083   -9.2322    0.8906   -9.2455    0.8192   -9.1796    0.8837   -9.1953    0.9146   -0.1624  -48.0005
  8.140   -9.1843    0.8258   -9.2409    0.9038   -9.1974    0.8864   -9.2108    0.8153   -9.1452    0.8795   -9.1608    0.9101   -0.1838  -48.0006
  8.150   -9.1496    0.8219   -9.2065    0.8994   -9.1628    0.8822   -9.1761    0.8114   -9.1109    0.8753   -9.1264    0.9057   -0.2078  -48.0006
  8.160   -9.1152    0.8180   -9.1722    0.8950   -9.1282    0.8781   -9.1417    0.8076   -9.0767    0.8711   -9.0922    0.9013   -0.2347  -48.0007
  8.170   -9.0808    0.8142   -9.1381    0.8906   -9.0939    0.8741   -9.1073    0.8038   -9.0426    0.8670   -9.0581    0.8970   -0.2649  -48.0008
  8.180   -9.0466    0.8104   -9.1041    0.8863   -9.0596    0.8701   -9.0731    0.8001   -9.0087    0.8630   -9.0241    0.8927   -0.2987  -48.0009
  8.190   -9.0125    0.8066   -9.0702    0.8821   -9.0255    0.8661   -9.0390    0.7964   -8.9750    0.8590   -8.9903    0.8885   -0.3366  -48.0010
  8.200   -8.9785    0.8029   -9.0365    0.8779   -8.9915    0.8622   -9.0051    0.7927   -8.9413    0.8550   -8.9565    0.8843   -0.3788  -48.0012
  8.210   -8.9447    0.7993   -9.0029    0.8738   -8.9576    0.8584   -8.9713    0.7891   -8.9078    0.8511   -8.9230    0.8802   -0.4260  -48.0013
  8.220   -8.9110    0.7957   -8.9694    0.8697   -8.9238    0.8546   -8.9376    0.7856   -8.8744    0.8473   -8.8895    0.8762   -0.4787  -48.0015
  8.230   -8.8774    0.7922   -8.9361    0.8656   -8.8902    0.8508   -8.9040    0.7821   -8.8411    0.8435   -8.8561    0.8722   -0.5373  -48.0017
  8.240   -8.8439    0.7887   -8.9029    0.8616   -8.8567    0.8471   -8.8706    0.7787   -8.8079    0.8397   -8.8229    0.8682   -0.6026  -48.0019
  8.250   -8.8105    0.7853   -8.8698    0.8577   -8.8233    0.8435   -8.8372    0.7753   -8.7749    0.8360   -8.7898    0.8643   -0.6752  -48.0022
  8.260   -8.7773    0.7819   -8.8369    0.8538   -8.7900    0.8399   -8.8040    0.7719   -8.7420    0.8324   -8.7568    0.8605   -0.7558  -48.0025
  8.270   -8.7442    0.7785   -8.8041    0.8499   -8.7568    0.8364   -8.7709    0.7687   -8.7091    0.8288   -8.7239    0.8567   -0.8453  -48.0028
  8.280   -8.7111    0.7753   -8.7714    0.8461   -8.7238    0.8329   -8.7379    0.7654   -8.6764    0.8253   -8.6912    0.8529   -0.9445  -48.0031
  8.290   -8.6782    0.7720   -8.7388    0.8424   -8.6908    0.8295   -8.7051    0.7622   -8.6438    0.8218   -8.6585    0.8492   -1.0543  -48.0035
  8.300   -8.6454    0.7688   -8.7063    0.8386   -8.6580    0.8261   -8.6723    0.7591   -8.6113    0.8183   -8.6260    0.8456   -1.1759  -48.0039
  8.310   -8.6127    0.7657   -8.6740    0.8350   -8.6252    0.8228   -8.6396    0.7560   -8.5790    0.8149   -8.5935    0.8420   -1.3102  -48.0044
  8.320   -8.5801    0.7626   -8.6418    0.8314   -8.5926    0.8195   -8.6071    0.7530   -8.5467    0.8116   -8.5612    0.8385   -1.4584  -48.0050
  8.330   -8.5476    0.7596   -8.6096    0.8278   -8.5600    0.8163   -8.5746    0.7500   -8.5145    0.8083   -8.5289    0.8350   -1.6220  -48.0056
  8.340   -8.5152    0.7567   -8.5776    0.8243   -8.5276    0.8131   -8.5423    0.7471   -8.4824    0.8050   -8.4968    0.8316   -1.8021  -48.0062
  8.350   -8.4828    0.7537   -8.5457    0.8208   -8.4952    0.8100   -8.5100    0.7442   -8.4504    0.8018   -8.4647    0.8282   -2.0004  -48.0070
  8.360   -8.4506    0.7509   -8.5139    0.8174   -8.4629    0.8070   -8.4778    0.7414   -8.4185    0.7987   -8.4328    0.8249   -2.2183  -48.0078
  8.370   -8.4185    0.7481   -8.4822    0.8140   -8.4308    0.8040   -8.4457    0.7386   -8.3867    0.7956   -8.4009    0.8217   -2.4577  -48.0087
  8.380   -8.3864    0.7453   -8.4506    0.8107   -8.3987    0.8010   -8.4138    0.7359   -8.3550    0.7926   -8.3691    0.8185   -2.7203  -48.0097
  8.390   -8.3544    0.7427   -8.4192    0.8074   -8.3666    0.7982   -8.3819    0.7332   -8.3233    0.7896   -8.3374    0.8153   -3.0082  -48.0108
  8.400   -8.3226    0.7400   -8.3878    0.8042   -8.3347    0.7953   -8.3501    0.7306   -8.2918    0.7867   -8.3058    0.8122   -3.3233  -48.0120
  8.410   -8.2907    0.7375   -8.3565    0.8010   -8.3029    0.7926   -8.3183    0.7281   -8.2603    0.7839   -8.2743    0.8092   -3.6680  -48.0133
  8.420   -8.2590    0.7350   -8.3253    0.7979   -8.2711    0.7899   -8.2867    0.7256   -8.2289    0.7811   -8.2429    0.8062   -4.0447  -48.0148
  8.430   -8.2273    0.7325   -8.2941    0.7949   -8.2394    0.7873   -8.2551    0.7232   -8.1976    0.7783   -8.2115    0.8033   -4.4558  -48.0165
  8.440   -8.1957    0.7301   -8.2631    0.7918   -8.2077    0.7847   -8.2236    0.7208   -8.1663    0.7756   -8.1802    0.8005   -4.9041  -48.0183
  8.450   -8.1642    0.7278   -8.2322    0.7889   -8.1762    0.7822   -8.1922    0.7185   -8.1352    0.7730   -8.1490    0.7977   -5.3925  -48.0203
  8.460   -8.1327    0.7255   -8.2013    0.7860   -8.1447    0.7797   -8.1608    0.7163   -8.1041    0.7704   -8.1178    0.7950   -5.9240  -48.0224
  8.470   -8.1013    0.7234   -8.1706    0.7831   -8.1132    0.7774   -8.1295    0.7141   -8.0730    0.7679   -8.0867    0.7923   -6.5019  -48.0248
  8.480   -8.0700    0.7212   -8.1399    0.7803   -8.0818    0.7751   -8.0983    0.7120   -8.0420    0.7655   -8.0557    0.7897   -7.1297  -48.0274
  8.490   -8.0387    0.7192   -8.1092    0.7776   -8.0505    0.7728   -8.0671    0.7099   -8.0111    0.7631   -8.0247    0.7872   -7.8109  -48.0303
  8.500   -8.0074    0.7172   -8.0787    0.7749   -8.0192    0.7707   -8.0360    0.7080   -7.9802    0.7608   -7.9938    0.7847   -8.5496  -48.0335
  8.510   -7.9762    0.7153   -8.0482    0.7722   -7.9879    0.7686   -8.0049    0.7061   -7.9494    0.7586   -7.9629    0.7824   -9.3499  -48.0369
  8.520   -7.9451    0.7134   -8.0178    0.7696   -7.9567    0.7666   -7.9739    0.7042   -7.9186    0.7564   -7.9321    0.7800  -10.2161  -48.0406
  8.530   -7.9140    0.7117   -7.9875    0.7671   -7.9256    0.7646   -7.9430    0.7025   -7.8879    0.7543   -7.9013    0.7778  -11.1528  -48.0447
  8.540   -7.8829    0.7100   -7.9572    0.7647   -7.8945    0.7628   -7.9120    0.7008   -7.8572    0.7523   -7.8706    0.7756  -12.1650  -48.0492
  8.550   -7.8518    0.7084   -7.9270    0.7623   -7.8634    0.7610   -7.8812    0.6992   -7.8266    0.7503   -7.8399    0.7735  -13.2578  -48.0541
  8.560   -7.8208    0.7069   -7.8969    0.7599   -7.8323    0.7593   -7.8503    0.6976   -7.7960    0.7485   -7.8092    0.7715  -14.4368  -48.0594
  8.570   -7.7898    0.7054   -7.8668    0.7576   -7.8013    0.7577   -7.8195    0.6962   -7.7654    0.7467   -7.7786    0.7695  -15.7079  -48.0652
  8.580   -7.7588    0.7041   -7.8367    0.7554   -7.7703    0.7562   -7.7887    0.6948   -7.7348    0.7449   -7.7480    0.7677  -17.0771  -48.0714
  8.590   -7.7279    0.7028   -7.8067    0.7533   -7.7393    0.7548   -7.7580    0.6935   -7.7043    0.7433   -7.7174    0.7659  -18.5511  -48.0783
  8.600   -7.6969    0.7017   -7.7768    0.7512   -7.7083    0.7535   -7.7272    0.6924   -7.6738    0.7418   -7.6869    0.7642  -20.1367  -48.0857
  8.610   -7.6660    0.7006   -7.7469    0.7492   -7.6773    0.7523   -7.6965    0.6913   -7.6433    0.7403   -7.6563    0.7626  -21.8412  -48.0937
  8.620   -7.6351    0.6997   -7.7170    0.7473   -7.6463    0.7511   -7.6658    0.6903   -7.6128    0.7389   -7.6258    0.7611  -23.6724  -48.1024
  8.630   -7.6041    0.6988   -7.6872    0.7454   -7.6153    0.7501   -7.6351    0.6894   -7.5823    0.7377   -7.5953    0.7597  -25.6384  -48.1118
  8.640   -7.5732    0.6981   -7.6574    0.7436   -7.5843    0.7492   -7.6044    0.6886   -7.5518    0.7365   -7.5648    0.7584  -27.7478  -48.1220
  8.650   -7.5422    0.6974   -7.6277    0.7419   -7.5533    0.7484   -7.5737    0.6879   -7.5213    0.7354   -7.5342    0.7572  -30.0097  -48.1330
  8.660   -7.5112    0.6969   -7.5979    0.7402   -7.5223    0.7478   -7.5430    0.6874   -7.4908    0.7345   -7.5037    0.7561  -32.4337  -48.1449
  8.670   -7.4802    0.6966   -7.5682    0.7387   -7.4912    0.7473   -7.5123    0.6869   -7.4603    0.7336   -7.4731    0.7552  -35.0296  -48.1578
  8.680   -7.4492    0.6963   -7.5385    0.7372   -7.4602    0.7468   -7.4815    0.6866   -7.4298    0.7329   -7.4426    0.7543  -37.8080  -48.1717
  8.690   -7.4181    0.6962   -7.5088    0.7358   -7.4290    0.7466   -7.4508    0.6864   -7.3992    0.7323   -7.4120    0.7536  -40.7799  -48.1867
  8.700   -7.3870    0.6962   -7.4792    0.7345   -7.3979    0.7465   -7.4200    0.6863   -7.3686    0.7318   -7.3814    0.7530  -43.9568  -48.2029
  8.710   -7.3558    0.6964   -7.4495    0.7333   -7.3667    0.7465   -7.3892    0.6864   -7.3380    0.7315   -7.3507    0.7525  -47.3505  -48.2203
  8.720   -7.3246    0.6967   -7.4198    0.7322   -7.3354    0.7467   -7.3583    0.6866   -7.3073    0.7312   -7.3200    0.7522  -50.9734  -48.2390
  8.730   -7.2934    0.6972   -7.3902    0.7312   -7.3041    0.7470   -7.3274    0.6870   -7.2766    0.7312   -7.2892    0.7520  -54.8383  -48.2591
  8.740   -7.2620    0.6979   -7.3605    0.7303   -7.2727    0.7476   -7.2965    0.6875   -7.2458    0.7313   -7.2584    0.7519  -58.9583  -48.2808
  8.750   -7.2306    0.6987   -7.3308    0.7295   -7.2413    0.7483   -7.2655    0.6883   -7.2150    0.7315   -7.2276    0.7520  -63.3470  -48.3041
  8.760   -7.1991    0.6998   -7.3011    0.7288   -7.2097    0.7492   -7.2344    0.6891   -7.1841    0.7319   -7.1966    0.7523  -68.0181  -48.3291
  8.770   -7.1675    0.7010   -7.2714    0.7282   -7.1781    0.7503   -7.2033    0.6902   -7.1531    0.7325   -7.1656    0.7528  -72.9856  -48.3559
  8.780   -7.1358    0.7024   -7.2417    0.7278   -7.1463    0.7516   -7.1720    0.6915   -7.1220    0.7333   -7.1345    0.7535  -78.2636  -48.3847
  8.790   -7.1040    0.7041   -7.2119    0.7274   -7.1145    0.7532   -7.1407    0.6930   -7.0909    0.7343   -7.1033    0.7543  -83.8665  -48.4155
  8.800   -7.0721    0.7061   -7.1821    0.7273   -7.0825    0.7550   -7.1093    0.6947   -7.0596    0.7354   -7.0720    0.7554  -89.8085  -48.4485
  8.810   -7.0400    0.7082   -7.1522    0.7272   -7.0504    0.7571   -7.0778    0.6967   -7.0282    0.7368   -7.0406    0.7567  -96.1036  -48.4838
  8.820   -7.0078    0.7107   -7.1223    0.7273   -7.0182    0.7594   -7.0462    0.6988   -6.9968    0.7385   -7.0091    0.7582 -102.7658  -48.5216
  8.830   -6.9755    0.7134   -7.0923    0.7275   -6.9858    0.7620   -7.0145    0.7013   -6.9651    0.7403   -6.9775    0.7600 -109.8087  -48.5619
  8.840   -6.9430    0.7164   -7.0623    0.7279   -6.9533    0.7650   -6.9826    0.7040   -6.9334    0.7425   -6.9457    0.7620 -117.2458  -48.6050
  8.850   -6.9103    0.7198   -7.0322    0.7285   -6.9206    0.7682   -6.9507    0.7071   -6.9015    0.7449   -6.9138    0.7643 -125.0896  -48.6510
  8.860   -6.8775    0.7235   -7.0020    0.7292   -6.8877    0.7718   -6.9185    0.7104   -6.8694    0.7476   -6.8817    0.7669 -133.3525  -48.7000
  8.870   -6.8445    0.7276   -6.9717    0.7302   -6.8547    0.7758   -6.8862    0.7141   -6.8372    0.7507   -6.8494    0.7699 -142.0460  -48.7522
  8.880   -6.8113    0.7321   -6.9414    0.7313   -6.8214    0.7802   -6.8538    0.7182   -6.8048    0.7541   -6.8170    0.7731 -151.1809  -48.8078
  8.890   -6.7778    0.7370   -6.9109    0.7326   -6.7880    0.7850   -6.8212    0.7226   -6.7722    0.7578   -6.7844    0.7768 -160.7672  -48.8668
  8.900   -6.7442    0.7423   -6.8804    0.7342   -6.7543    0.7903   -6.7884    0.7275   -6.7394    0.7619   -6.7516    0.7808 -170.8139  -48.9296
  8.910   -6.7103    0.7481   -6.8497    0.7360   -6.7204    0.7961   -6.7554    0.7328   -6.7064    0.7665   -6.7185    0.7852 -181.3293  -48.9962
  8.920   -6.6762    0.7545   -6.8189    0.7380   -6.6863    0.8024   -6.7222    0.7386   -6.6731    0.7715   -6.6853    0.7901 -192.3204  -49.0669
  8.930   -6.6418    0.7614   -6.7879    0.7403   -6.6519    0.8093   -6.6888    0.7449   -6.6397    0.7769   -6.6518    0.7955 -203.7934  -49.1418
  8.940   -6.6071    0.7690   -6.7568    0.7429   -6.6172    0.8168   -6.6552    0.7517   -6.6060    0.7829   -6.6181    0.8014 -215.7533  -49.2211
  8.950   -6.5722    0.7772   -6.7256    0.7457   -6.5823    0.8249   -6.6214    0.7591   -6.5720    0.7894   -6.5841    0.8078 -228.2040  -49.3050
  8.960   -6.5370    0.7861   -6.6942    0.7489   -6.5471    0.8338   -6.5874    0.7672   -6.5378    0.7966   -6.5499    0.8148 -241.1482  -49.3936
  8.970   -6.5015    0.7958   -6.6626    0.7524   -6.5117    0.8435   -6.5531    0.7759   -6.5033    0.8044   -6.5154    0.8225 -254.5873  -49.4871
  8.980   -6.4658    0.8063   -6.6309    0.7562   -6.4759    0.8540   -6.5186    0.7854   -6.4685    0.8129   -6.4806    0.8309 -268.5217  -49.5858
  8.990   -6.4297    0.8177   -6.5989    0.7605   -6.4399    0.8654   -6.4838    0.7957   -6.4334    0.8221   -6.4456    0.8401 -282.9502  -49.6898
  9.000   -6.3933    0.8300   -6.5668    0.7651   -6.4036    0.8778   -6.4489    0.8069   -6.3980    0.8322   -6.4102    0.8500 -297.8700  -49.7993
  9.010   -6.3566    0.8435   -6.5344    0.7702   -6.3670    0.8912   -6.4137    0.8189   -6.3624    0.8431   -6.3745    0.8609 -313.2769  -49.9144
  9.020   -6.3196    0.8581   -6.5018    0.7757   -6.3301    0.9058   -6.3782    0.8320   -6.3264    0.8550   -6.3386    0.8727 -329.1648  -50.0354
  9.030   -6.2824    0.8739   -6.4690    0.7818   -6.2930    0.9217   -6.3426    0.8462   -6.2902    0.8680   -6.3023    0.8856 -345.5253  -50.1623
  9.040   -6.2449    0.8912   -6.4359    0.7883   -6.2556    0.9390   -6.3068    0.8616   -6.2536    0.8821   -6.2658    0.8996 -362.3480  -50.2955
  9.050   -6.2071    0.9099   -6.4026    0.7955   -6.2181    0.9578   -6.2708    0.8783   -6.2168    0.8975   -6.2290    0.9149 -379.6195  -50.4350
  9.060   -6.1692    0.9302   -6.3690    0.8033   -6.1803    0.9782   -6.2347    0.8964   -6.1797    0.9142   -6.1919    0.9315 -397.3234  -50.5810
  9.070   -6.1311    0.9524   -6.3351    0.8117   -6.1425    1.0004   -6.1985    0.9161   -6.1424    0.9324   -6.1547    0.9496 -415.4398  -50.7337
  9.080   -6.0929    0.9764   -6.3010    0.8209   -6.1046    1.0245   -6.1623    0.9374   -6.1049    0.9523   -6.1172    0.9693 -433.9448  -50.8932
  9.090   -6.0547    1.0026   -6.2666    0.8309   -6.0668    1.0508   -6.1261    0.9605   -6.0673    0.9739   -6.0796    0.9908 -452.8099  -51.0596
  9.100   -6.0166    1.0311   -6.2318    0.8417   -6.0291    1.0793   -6.0901    0.9856   -6.0297    0.9974   -6.0420    1.0143 -472.0017  -51.2330
  9.110   -5.9787    1.0621   -6.1968    0.8534   -5.9918    1.1103   -6.0544    1.0127   -5.9921    1.0231   -6.0045    1.0398 -491.4811  -51.4136
  9.120   -5.9413    1.0958   -6.1615    0.8661   -5.9549    1.1441   -6.0190    1.0422   -5.9546    1.0510   -5.9671    1.0676 -511.2027  -51.6015
  9.130   -5.9044    1.1325   -6.1259    0.8799   -5.9187    1.1808   -5.9843    1.0742   -5.9175    1.0814   -5.9300    1.0979 -531.1148  -51.7967
  9.140   -5.8685    1.1724   -6.0900    0.8949   -5.8835    1.2206   -5.9504    1.1088   -5.8808    1.1145   -5.8934    1.1309 -551.1585  -51.9992
  9.150   -5.8337    1.2158   -6.0538    0.9111   -5.8495    1.2638   -5.9175    1.1463   -5.8449    1.1506   -5.8575    1.1668 -571.2674  -52.2092
  9.160   -5.8005    1.2629   -6.0174    0.9288   -5.8173    1.3106   -5.8861    1.1867   -5.8100    1.1898   -5.8226    1.2059 -591.3677  -52.4265
  9.170   -5.7693    1.3139   -5.9808    0.9479   -5.7872    1.3613   -5.8564    1.2304   -5.7764    1.2323   -5.7891    1.2483 -611.3775  -52.6512
  9.180   -5.7407    1.3691   -5.9439    0.9687   -5.7597    1.4159   -5.8289    1.2774   -5.7446    1.2785   -5.7574    1.2943 -631.2076  -52.8831
  9.190   -5.7153    1.4286   -5.9070    0.9913   -5.7357    1.4747   -5.8041    1.3278   -5.7150    1.3283   -5.7279    1.3440 -650.7609  -53.1223
  9.200   -5.6939    1.4925   -5.8700    1.0159   -5.7156    1.5376   -5.7827    1.3816   -5.6883    1.3821   -5.7012    1.3976 -669.9336  -53.3685
  9.210   -5.6774    1.5609   -5.8330    1.0426   -5.7005    1.6047   -5.7652    1.4389   -5.6650    1.4399   -5.6781    1.4552 -688.6153  -53.6215
  9.220   -5.6668    1.6335   -5.7962    1.0716   -5.6913    1.6756   -5.7525    1.4994   -5.6460    1.5015   -5.6592    1.5167 -706.6900  -53.8812
  9.230   -5.6631    1.7100   -5.7596    1.1032   -5.6890    1.7500   -5.7453    1.5628   -5.6322    1.5670   -5.6454    1.5819 -724.0372  -54.1473
  9.240   -5.6675    1.7900   -5.7234    1.1375   -5.6946    1.8274   -5.7444    1.6286   -5.6243    1.6359   -5.6377    1.6506 -740.5332  -54.4195
  9.250   -5.6812    1.8724   -5.6879    1.1749   -5.7092    1.9067   -5.7507    1.6962   -5.6235    1.7077   -5.6369    1.7222 -756.0525  -54.6973
  9.260   -5.7054    1.9561   -5.6534    1.2154   -5.7338    1.9868   -5.7649    1.7645   -5.6307    1.7816   -5.6442    1.7958 -770.4692  -54.9805
  9.270   -5.7410    2.0395   -5.6200    1.2594   -5.7692    2.0662   -5.7877    1.8325   -5.6467    1.8565   -5.6602    1.8705 -783.6593  -55.2684
  9.280   -5.7889    2.1207   -5.5883    1.3072   -5.8160    2.1429   -5.8194    1.8986   -5.6722    1.9311   -5.6859    1.9448 -795.5022  -55.5608
  9.290   -5.8493    2.1973   -5.5586    1.3589   -5.8744    2.2150   -5.8600    1.9613   -5.7077    2.0038   -5.7214    2.0171 -805.8827  -55.8569
  9.300   -5.9220    2.2668   -5.5316    1.4148   -5.9438    2.2800   -5.9093    2.0189   -5.7533    2.0726   -5.7671    2.0856 -814.6932  -56.1563
  9.310   -6.0060    2.3266   -5.5078    1.4750   -6.0235    2.3358   -5.9666    2.0698   -5.8085    2.1358   -5.8223    2.1484 -821.8353  -56.4584
  9.320   -6.0999    2.3742   -5.4881    1.5397   -6.1118    2.3802   -6.0306    2.1124   -5.8724    2.1914   -5.8862    2.2035 -827.2219  -56.7624
  9.330   -6.2013    2.4076   -5.4733    1.6088   -6.2066    2.4116   -6.0998    2.1456   -5.9437    2.2378   -5.9575    2.2496 -830.7790  -57.0677
  9.340   -6.3072    2.4252   -5.4644    1.6822   -6.3054    2.4288   -6.1723    2.1687   -6.0206    2.2739   -6.0343    2.2852 -832.4471  -57.3736
  9.350   -6.4146    2.4265   -5.4625    1.7597   -6.4054    2.4313   -6.2462    2.1814   -6.1009    2.2989   -6.1145    2.3097 -832.1827  -57.6794
  9.360   -6.5202    2.4117   -5.4688    1.8406   -6.5039    2.4194   -6.3196    2.1841   -6.1827    2.3127   -6.1961    2.3231 -829.9594  -57.9844
  9.370   -6.6209    2.3818   -5.4846    1.9241   -6.5984    2.3941   -6.3910    2.1776   -6.2640    2.3158   -6.2772    2.3258 -825.7686  -58.2879
  9.380   -6.7143    2.3386   -5.5109    2.0090   -6.6867    2.3568   -6.4589    2.1628   -6.3432    2.3091   -6.3560    2.3186 -819.6200  -58.5891
  9.390   -6.7985    2.2843   -5.5489    2.0938   -6.7673    2.3094   -6.5228    2.1412   -6.4190    2.2936   -6.4316    2.3028 -811.5421  -58.8873
  9.400   -6.8723    2.2213   -5.5994    2.1765   -6.8392    2.2537   -6.5821    2.1139   -6.4909    2.2706   -6.5031    2.2794 -801.5814  -59.1819
  9.410   -6.9352    2.1520   -5.6628    2.2548   -6.9021    2.1918   -6.6368    2.0820   -6.5584    2.2411   -6.5701    2.2496 -789.8024  -59.4721
  9.420   -6.9875    2.0786   -5.7391    2.3262   -6.9557    2.1254   -6.6872    2.0463   -6.6214    2.2060   -6.6327    2.2143 -776.2866  -59.7574
  9.430   -7.0295    2.0030   -5.8274    2.3878   -7.0004    2.0560   -6.7335    2.0074   -6.6800    2.1661   -6.6908    2.1742 -761.1312  -60.0371
  9.440   -7.0620    1.9265   -5.9263    2.4372   -7.0368    1.9848   -6.7761    1.9656   -6.7342    2.1218   -6.7446    2.1296 -744.4480  -60.3107
  9.450   -7.0860    1.8504   -6.0336    2.4719   -7.0652    1.9128   -6.8150    1.9210   -6.7839    2.0732   -6.7939    2.0810 -726.3612  -60.5776
  9.460   -7.1022    1.7755   -6.1464    2.4902   -7.0864    1.8408   -6.8503    1.8736   -6.8291    2.0207   -6.8386    2.0285 -707.0061  -60.8375
  9.470   -7.1116    1.7022   -6.2615    2.4911   -7.1008    1.7694   -6.8818    1.8236   -6.8694    1.9645   -6.8784    1.9723 -686.5264  -61.0898
  9.480   -7.1149    1.6311   -6.3754    2.4746   -7.1091    1.6991   -6.9093    1.7709   -6.9043    1.9050   -6.9129    1.9129 -665.0728  -61.3342
  9.490   -7.1128    1.5624   -6.4848    2.4413   -7.1115    1.6302   -6.9322    1.7160   -6.9336    1.8427   -6.9418    1.8507 -642.8002  -61.5704
  9.500   -7.1059    1.4963   -6.5866    2.3930   -7.1087    1.5633   -6.9504    1.6593   -6.9568    1.7783   -6.9646    1.7864 -619.8657  -61.7982
  9.510   -7.0947    1.4330   -6.6786    2.3317   -7.1011    1.4985   -6.9636    1.6012   -6.9737    1.7126   -6.9813    1.7208 -596.4263  -62.0174
  9.520   -7.0797    1.3725   -6.7591    2.2600   -7.0891    1.4363   -6.9717    1.5426   -6.9844    1.6463   -6.9918    1.6547 -572.6371  -62.2278
  9.530   -7.0614    1.3150   -6.8271    2.1807   -7.0732    1.3768   -6.9746    1.4840   -6.9891    1.5804   -6.9962    1.5890 -548.6489  -62.4294
  9.540   -7.0402    1.2605   -6.8825    2.0963   -7.0539    1.3202   -6.9727    1.4260   -6.9879    1.5156   -6.9948    1.5244 -524.6068  -62.6222
  9.550   -7.0165    1.2090   -6.9255    2.0091   -7.0317    1.2667   -6.9662    1.3693   -6.9815    1.4525   -6.9882    1.4615 -500.6485  -62.8062
  9.560   -6.9908    1.1605   -6.9568    1.9213   -7.0070    1.2161   -6.9555    1.3144   -6.9702    1.3917   -6.9769    1.4008 -476.9026  -62.9815
  9.570   -6.9633    1.1150   -6.9775    1.8345   -6.9803    1.1687   -6.9410    1.2615   -6.9548    1.3336   -6.9614    1.3428 -453.4878  -63.1481
  9.580   -6.9344    1.0723   -6.9887    1.7498   -6.9519    1.1242   -6.9233    1.2111   -6.9358    1.2783   -6.9423    1.2877 -430.5119  -63.3063
  9.590   -6.9045    1.0323   -6.9915    1.6683   -6.9222    1.0826   -6.9028    1.1631   -6.9138    1.2261   -6.9202    1.2357 -408.0709  -63.4563
  9.600   -6.8737    0.9950   -6.9872    1.5906   -6.8915    1.0437   -6.8799    1.1178   -6.8892    1.1770   -6.8955    1.1867 -386.2490  -63.5982
  9.610   -6.8424    0.9601   -6.9768    1.5169   -6.8602    1.0075   -6.8551    1.0751   -6.8626    1.1310   -6.8689    1.1407 -365.1181  -63.7324
  9.620   -6.8106    0.9276   -6.9614    1.4477   -6.8283    0.9737   -6.8288    1.0350   -6.8344    1.0879   -6.8407    1.0978 -344.7378  -63.8591
  9.630   -6.7786    0.8972   -6.9418    1.3827   -6.7961    0.9423   -6.8012    0.9974   -6.8050    1.0477   -6.8112    1.0577 -325.1560  -63.9786
  9.640   -6.7465    0.8689   -6.9189    1.3221   -6.7638    0.9130   -6.7727    0.9622   -6.7746    1.0103   -6.7809    1.0204 -306.4088  -64.0912
  9.650   -6.7144    0.8424   -6.8933    1.2656   -6.7314    0.8856   -6.7434    0.9293   -6.7436    0.9754   -6.7498    0.9856 -288.5214  -64.1972
  9.660   -6.6825    0.8177   -6.8656    1.2131   -6.6991    0.8602   -6.7137    0.8985   -6.7121    0.9430   -6.7184    0.9532 -271.5088  -64.2970
  9.670   -6.6507    0.7946   -6.8363    1.1643   -6.6671    0.8364   -6.6836    0.8698   -6.6804    0.9127   -6.6867    0.9230 -255.3765  -64.3909
  9.680   -6.6191    0.7730   -6.8057    1.1190   -6.6352    0.8141   -6.6534    0.8430   -6.6486    0.8846   -6.6549    0.8949 -240.1214  -64.4791
  9.690   -6.5879    0.7528   -6.7742    1.0770   -6.6037    0.7933   -6.6231    0.8179   -6.6168    0.8584   -6.6231    0.8687 -225.7328  -64.5621
  9.700   -6.5570    0.7338   -6.7422    1.0379   -6.5724    0.7739   -6.5928    0.7944   -6.5852    0.8339   -6.5915    0.8442 -212.1934  -64.6400
  9.710   -6.5264    0.7160   -6.7097    1.0017   -6.5416    0.7556   -6.5627    0.7724   -6.5537    0.8111   -6.5600    0.8214 -199.4801  -64.7133
  9.720   -6.4962    0.6993   -6.6770    0.9681   -6.5111    0.7385   -6.5327    0.7519   -6.5225    0.7897   -6.5288    0.8001 -187.5650  -64.7823
  9.730   -6.4663    0.6836   -6.6443    0.9368   -6.4810    0.7224   -6.5029    0.7326   -6.4916    0.7698   -6.4979    0.7802 -176.4164  -64.8471
  9.740   -6.4369    0.6687   -6.6116    0.9077   -6.4513    0.7073   -6.4734    0.7145   -6.4610    0.7511   -6.4673    0.7615 -165.9998  -64.9081
  9.750   -6.4079    0.6548   -6.5791    0.8805   -6.4221    0.6930   -6.4442    0.6975   -6.4308    0.7336   -6.4371    0.7440 -156.2784  -64.9655
  9.760   -6.3793    0.6416   -6.5469    0.8552   -6.3932    0.6795   -6.4154    0.6815   -6.4009    0.7171   -6.4072    0.7275 -147.2142  -65.0196
  9.770   -6.3510    0.6291   -6.5149    0.8316   -6.3648    0.6668   -6.3868    0.6664   -6.3715    0.7017   -6.3778    0.7121 -138.7682  -65.0706
  9.780   -6.3232    0.6174   -6.4832    0.8096   -6.3367    0.6548   -6.3586    0.6522   -6.3424    0.6871   -6.3488    0.6975 -130.9017  -65.1187
  9.790   -6.2957    0.6062   -6.4519    0.7889   -6.3091    0.6434   -6.3307    0.6388   -6.3138    0.6734   -6.3201    0.6838 -123.5760  -65.1641
  9.800   -6.2687    0.5956   -6.4210    0.7696   -6.2818    0.6326   -6.3032    0.6261   -6.2856    0.6605   -6.2919    0.6708 -116.7536  -65.2071
  9.810   -6.2420    0.5856   -6.3905    0.7514   -6.2550    0.6223   -6.2760    0.6141   -6.2577    0.6482   -6.2640    0.6586 -110.3980  -65.2476
  9.820   -6.2156    0.5760   -6.3604    0.7343   -6.2285    0.6126   -6.2492    0.6028   -6.2303    0.6367   -6.2366    0.6470 -104.4743  -65.2860
  9.830   -6.1897    0.5669   -6.3308    0.7183   -6.2024    0.6033   -6.2227    0.5920   -6.2032    0.6257   -6.2096    0.6360  -98.9493  -65.3224
  9.840   -6.1641    0.5582   -6.3016    0.7032   -6.1766    0.5944   -6.1966    0.5818   -6.1766    0.6153   -6.1829    0.6256  -93.7918  -65.3569
  9.850   -6.1388    0.5500   -6.2728    0.6889   -6.1512    0.5860   -6.1708    0.5721   -6.1503    0.6054   -6.1566    0.6157  -88.9724  -65.3895
  9.860   -6.1138    0.5421   -6.2444    0.6755   -6.1261    0.5780   -6.1454    0.5629   -6.1244    0.5961   -6.1307    0.6063  -84.4639  -65.4206
  9.870   -6.0892    0.5345   -6.2164    0.6628   -6.1014    0.5703   -6.1202    0.5541   -6.0988    0.5871   -6.1051    0.5973  -80.2410  -65.4501
  9.880   -6.0649    0.5273   -6.1889    0.6507   -6.0770    0.5629   -6.0954    0.5457   -6.0736    0.5786   -6.0799    0.5888  -76.2805  -65.4781
  9.890   -6.0409    0.5204   -6.1617    0.6393   -6.0528    0.5558   -6.0709    0.5376   -6.0487    0.5705   -6.0550    0.5807  -72.5614  -65.5048
  9.900   -6.0172    0.5138   -6.1350    0.6285   -6.0290    0.5491   -6.0467    0.5300   -6.0242    0.5627   -6.0305    0.5729  -69.0643  -65.5302
  9.910   -5.9938    0.5074   -6.1086    0.6182   -6.0055    0.5426   -6.0229    0.5227   -6.0000    0.5553   -6.0063    0.5654  -65.7716  -65.5543
  9.920   -5.9707    0.5013   -6.0827    0.6084   -5.9823    0.5363   -5.9993    0.5157   -5.9761    0.5482   -5.9824    0.5583  -62.6676  -65.5774
  9.930   -5.9478    0.4954   -6.0570    0.5991   -5.9594    0.5303   -5.9759    0.5089   -5.9525    0.5414   -5.9587    0.5515  -59.7381  -65.5993
  9.940   -5.9253    0.4898   -6.0318    0.5902   -5.9367    0.5245   -5.9529    0.5025   -5.9292    0.5349   -5.9354    0.5449  -56.9704  -65.6202
  9.950   -5.9029    0.4843   -6.0069    0.5818   -5.9143    0.5190   -5.9301    0.4963   -5.9061    0.5286   -5.9124    0.5386  -54.3529  -65.6402
  9.960   -5.8809    0.4791   -5.9823    0.5737   -5.8921    0.5136   -5.9076    0.4903   -5.8834    0.5226   -5.8897    0.5325  -51.8755  -65.6593
  9.970   -5.8590    0.4740   -5.9581    0.5659   -5.8702    0.5084   -5.8854    0.4846   -5.8609    0.5168   -5.8672    0.5267  -49.5292  -65.6775
  9.980   -5.8374    0.4691   -5.9341    0.5585   -5.8485    0.5034   -5.8634    0.4791   -5.8387    0.5112   -5.8450    0.5211  -47.3058  -65.6941
  9.990   -5.8160    0.4644   -5.9105    0.5514   -5.8271    0.4986   -5.8416    0.4738   -5.8168    0.5058   -5.8230    0.5157  -45.1981  -65.7135
 10.000   -5.7949    0.4598   -5.8872    0.5446   -5.8059    0.4939   -5.8200    0.4687   -5.7951    0.5006   -5.8013    0.5105  -43.1997  -65.7195
