# Macroscopic dielectric function obtained with the BS equation.
#  RPA L0 with KS energies and KS wavefunctions     LOCAL FIELD EFFECTS INCLUDED
# RESONANT-ONLY calculation
# Coulomb term constructed with full W(G1,G2)
# Scissor operator energy =  0.8000 [eV]
# nstates included in the diagonalization = 96
# npweps  = 113
# npwwfn  = 283
# nbands  = 8
# loband  = 2
# nkibz   = 3
# nkbz    = 8
# Lorentzian broadening =  0.0000 [eV]
# List of q-points for the optical limit:
# q =  0.938821, 0.000000, 0.000000, [Reduced coords] 
# q =  0.000000, 0.938821, 0.000000, [Reduced coords] 
# q =  0.000000, 0.000000, 0.938821, [Reduced coords] 
# q =  0.000000, 0.813043, 0.813043, [Reduced coords] 
# q =  0.813043, 0.000000, 0.813043, [Reduced coords] 
# q =  0.813043, 0.813043, 0.000000, [Reduced coords] 
# omega [eV]    RE(eps(q=1)) IM(eps(q=1) RE(eps(q=2) ) ... DOS   IDOS
  0.000   55.7213    0.2854   55.6761    0.3546   55.6836    0.3536   55.6840    0.2675   55.7823    0.3416   55.7908    0.3501   -0.0000   -0.0000
  0.010   55.7218    0.2924   55.6766    0.3617   55.6842    0.3608   55.6845    0.2745   55.7828    0.3489   55.7913    0.3574   -0.0000   -0.0000
  0.020   55.7235    0.2994   55.6782    0.3689   55.6858    0.3679   55.6862    0.2815   55.7845    0.3562   55.7930    0.3647   -0.0000   -0.0000
  0.030   55.7263    0.3064   55.6810    0.3761   55.6886    0.3751   55.6890    0.2886   55.7872    0.3636   55.7957    0.3721   -0.0000   -0.0000
  0.040   55.7303    0.3134   55.6849    0.3833   55.6925    0.3823   55.6930    0.2957   55.7911    0.3710   55.7996    0.3795   -0.0000   -0.0000
  0.050   55.7354    0.3204   55.6899    0.3905   55.6975    0.3895   55.6980    0.3028   55.7962    0.3784   55.8047    0.3869   -0.0000   -0.0000
  0.060   55.7416    0.3274   55.6960    0.3978   55.7037    0.3968   55.7042    0.3099   55.8024    0.3859   55.8109    0.3943   -0.0000   -0.0000
  0.070   55.7489    0.3345   55.7033    0.4051   55.7109    0.4040   55.7116    0.3170   55.8097    0.3933   55.8182    0.4018   -0.0000   -0.0000
  0.080   55.7573    0.3416   55.7117    0.4124   55.7193    0.4113   55.7200    0.3242   55.8181    0.4008   55.8266    0.4092   -0.0000   -0.0000
  0.090   55.7669    0.3487   55.7212    0.4197   55.7289    0.4186   55.7296    0.3314   55.8277    0.4083   55.8362    0.4168   -0.0000   -0.0000
  0.100   55.7777    0.3559   55.7318    0.4271   55.7395    0.4260   55.7403    0.3386   55.8384    0.4159   55.8469    0.4243   -0.0000   -0.0000
  0.110   55.7895    0.3630   55.7436    0.4344   55.7513    0.4334   55.7521    0.3458   55.8502    0.4234   55.8587    0.4319   -0.0000   -0.0000
  0.120   55.8025    0.3702   55.7565    0.4419   55.7643    0.4408   55.7651    0.3531   55.8632    0.4310   55.8717    0.4394   -0.0000   -0.0000
  0.130   55.8166    0.3775   55.7705    0.4493   55.7783    0.4482   55.7792    0.3604   55.8773    0.4387   55.8858    0.4471   -0.0000   -0.0000
  0.140   55.8319    0.3847   55.7857    0.4568   55.7935    0.4557   55.7945    0.3677   55.8925    0.4463   55.9011    0.4547   -0.0000   -0.0000
  0.150   55.8483    0.3920   55.8020    0.4643   55.8098    0.4632   55.8109    0.3750   55.9089    0.4540   55.9175    0.4624   -0.0000   -0.0000
  0.160   55.8658    0.3993   55.8194    0.4718   55.8273    0.4707   55.8284    0.3824   55.9265    0.4618   55.9350    0.4701   -0.0000   -0.0000
  0.170   55.8845    0.4066   55.8380    0.4794   55.8459    0.4783   55.8471    0.3898   55.9452    0.4695   55.9537    0.4779   -0.0000   -0.0000
  0.180   55.9043    0.4140   55.8578    0.4870   55.8657    0.4859   55.8669    0.3972   55.9650    0.4773   55.9736    0.4857   -0.0000   -0.0000
  0.190   55.9253    0.4214   55.8787    0.4947   55.8866    0.4935   55.8879    0.4047   55.9860    0.4852   55.9946    0.4935   -0.0000   -0.0000
  0.200   55.9474    0.4288   55.9007    0.5024   55.9086    0.5012   55.9100    0.4121   56.0082    0.4930   56.0167    0.5014   -0.0000   -0.0000
  0.210   55.9707    0.4363   55.9239    0.5101   55.9318    0.5089   55.9333    0.4197   56.0315    0.5009   56.0400    0.5093   -0.0000   -0.0000
  0.220   55.9952    0.4438   55.9482    0.5179   55.9562    0.5167   55.9577    0.4272   56.0560    0.5089   56.0645    0.5172   -0.0000   -0.0000
  0.230   56.0208    0.4513   55.9737    0.5257   55.9817    0.5245   55.9833    0.4348   56.0816    0.5169   56.0902    0.5252   -0.0000   -0.0000
  0.240   56.0475    0.4589   56.0003    0.5335   56.0084    0.5323   56.0100    0.4425   56.1084    0.5249   56.1170    0.5332   -0.0000   -0.0000
  0.250   56.0755    0.4665   56.0282    0.5414   56.0362    0.5402   56.0379    0.4501   56.1364    0.5330   56.1449    0.5413   -0.0000   -0.0000
  0.260   56.1046    0.4742   56.0572    0.5493   56.0652    0.5481   56.0670    0.4578   56.1655    0.5411   56.1741    0.5494   -0.0000   -0.0000
  0.270   56.1349    0.4819   56.0873    0.5573   56.0954    0.5561   56.0973    0.4656   56.1958    0.5493   56.2044    0.5576   -0.0000   -0.0000
  0.280   56.1663    0.4896   56.1187    0.5653   56.1268    0.5641   56.1287    0.4734   56.2274    0.5575   56.2359    0.5658   -0.0000   -0.0000
  0.290   56.1990    0.4974   56.1512    0.5734   56.1593    0.5721   56.1614    0.4812   56.2600    0.5657   56.2686    0.5740   -0.0000   -0.0000
  0.300   56.2328    0.5052   56.1849    0.5815   56.1930    0.5802   56.1952    0.4891   56.2939    0.5740   56.3025    0.5823   -0.0000   -0.0000
  0.310   56.2678    0.5131   56.2198    0.5897   56.2279    0.5884   56.2302    0.4970   56.3290    0.5824   56.3376    0.5907   -0.0000   -0.0000
  0.320   56.3041    0.5210   56.2559    0.5979   56.2641    0.5966   56.2664    0.5050   56.3653    0.5908   56.3739    0.5991   -0.0000   -0.0000
  0.330   56.3415    0.5290   56.2931    0.6062   56.3014    0.6049   56.3038    0.5130   56.4028    0.5992   56.4114    0.6075   -0.0000   -0.0000
  0.340   56.3801    0.5370   56.3316    0.6145   56.3399    0.6132   56.3424    0.5211   56.4415    0.6077   56.4501    0.6160   -0.0000   -0.0000
  0.350   56.4200    0.5451   56.3713    0.6229   56.3796    0.6215   56.3822    0.5292   56.4814    0.6163   56.4900    0.6246   -0.0000   -0.0000
  0.360   56.4610    0.5532   56.4122    0.6313   56.4205    0.6300   56.4232    0.5373   56.5225    0.6249   56.5312    0.6332   -0.0000   -0.0000
  0.370   56.5033    0.5613   56.4544    0.6398   56.4627    0.6384   56.4655    0.5456   56.5649    0.6336   56.5735    0.6418   -0.0000   -0.0000
  0.380   56.5468    0.5696   56.4977    0.6484   56.5061    0.6470   56.5090    0.5538   56.6085    0.6423   56.6171    0.6506   -0.0000   -0.0000
  0.390   56.5915    0.5778   56.5423    0.6570   56.5507    0.6556   56.5537    0.5621   56.6533    0.6511   56.6620    0.6594   -0.0000   -0.0000
  0.400   56.6375    0.5862   56.5881    0.6656   56.5965    0.6642   56.5996    0.5705   56.6994    0.6600   56.7081    0.6682   -0.0000   -0.0000
  0.410   56.6848    0.5945   56.6352    0.6743   56.6436    0.6729   56.6468    0.5789   56.7467    0.6689   56.7554    0.6771   -0.0000   -0.0000
  0.420   56.7332    0.6030   56.6835    0.6831   56.6919    0.6817   56.6953    0.5874   56.7953    0.6779   56.8040    0.6861   -0.0000   -0.0000
  0.430   56.7830    0.6115   56.7331    0.6920   56.7415    0.6905   56.7450    0.5960   56.8451    0.6869   56.8538    0.6951   -0.0000   -0.0000
  0.440   56.8340    0.6200   56.7839    0.7009   56.7924    0.6994   56.7960    0.6046   56.8962    0.6960   56.9049    0.7042   -0.0000   -0.0000
  0.450   56.8863    0.6287   56.8360    0.7099   56.8445    0.7084   56.8482    0.6132   56.9486    0.7052   56.9573    0.7134   -0.0000   -0.0000
  0.460   56.9398    0.6374   56.8894    0.7189   56.8979    0.7175   56.9017    0.6220   57.0023    0.7145   57.0110    0.7227   -0.0000   -0.0000
  0.470   56.9947    0.6461   56.9440    0.7281   56.9526    0.7266   56.9565    0.6308   57.0573    0.7238   57.0660    0.7320   -0.0000   -0.0000
  0.480   57.0508    0.6549   57.0000    0.7373   57.0086    0.7357   57.0126    0.6396   57.1135    0.7332   57.1222    0.7414   -0.0000   -0.0000
  0.490   57.1082    0.6638   57.0572    0.7465   57.0659    0.7450   57.0700    0.6486   57.1711    0.7426   57.1798    0.7508   -0.0000   -0.0000
  0.500   57.1670    0.6728   57.1158    0.7559   57.1244    0.7543   57.1288    0.6576   57.2300    0.7522   57.2387    0.7604   -0.0000   -0.0000
  0.510   57.2270    0.6818   57.1756    0.7653   57.1843    0.7637   57.1888    0.6666   57.2902    0.7618   57.2989    0.7700   -0.0000   -0.0000
  0.520   57.2884    0.6909   57.2368    0.7748   57.2456    0.7732   57.2501    0.6758   57.3517    0.7715   57.3604    0.7797   -0.0000   -0.0000
  0.530   57.3512    0.7000   57.2994    0.7843   57.3081    0.7828   57.3128    0.6850   57.4146    0.7812   57.4233    0.7894   -0.0000   -0.0000
  0.540   57.4152    0.7093   57.3632    0.7940   57.3720    0.7924   57.3769    0.6943   57.4788    0.7911   57.4876    0.7993   -0.0000   -0.0000
  0.550   57.4807    0.7186   57.4284    0.8037   57.4373    0.8021   57.4423    0.7036   57.5444    0.8010   57.5531    0.8092   -0.0000   -0.0000
  0.560   57.5475    0.7280   57.4950    0.8135   57.5039    0.8119   57.5090    0.7131   57.6113    0.8110   57.6201    0.8192   -0.0000   -0.0000
  0.570   57.6156    0.7375   57.5629    0.8234   57.5718    0.8218   57.5771    0.7226   57.6796    0.8211   57.6884    0.8293   -0.0000   -0.0000
  0.580   57.6852    0.7470   57.6323    0.8334   57.6412    0.8318   57.6466    0.7322   57.7493    0.8313   57.7581    0.8395   -0.0000   -0.0000
  0.590   57.7561    0.7567   57.7030    0.8435   57.7119    0.8419   57.7175    0.7419   57.8204    0.8416   57.8292    0.8498   -0.0000   -0.0000
  0.600   57.8284    0.7664   57.7751    0.8537   57.7841    0.8520   57.7898    0.7516   57.8929    0.8520   57.9018    0.8602   -0.0000   -0.0000
  0.610   57.9022    0.7762   57.8486    0.8639   57.8576    0.8623   57.8635    0.7615   57.9669    0.8625   57.9757    0.8706   -0.0000   -0.0000
  0.620   57.9773    0.7861   57.9235    0.8743   57.9326    0.8726   57.9386    0.7714   58.0422    0.8730   58.0511    0.8812   -0.0000   -0.0000
  0.630   58.0539    0.7961   57.9999    0.8847   58.0090    0.8830   58.0152    0.7814   58.1190    0.8837   58.1279    0.8918   -0.0000   -0.0000
  0.640   58.1320    0.8062   58.0777    0.8953   58.0868    0.8936   58.0932    0.7916   58.1972    0.8944   58.2061    0.9026   -0.0000   -0.0000
  0.650   58.2115    0.8164   58.1569    0.9059   58.1661    0.9042   58.1726    0.8018   58.2769    0.9053   58.2858    0.9135   -0.0000   -0.0000
  0.660   58.2925    0.8266   58.2376    0.9166   58.2468    0.9149   58.2536    0.8121   58.3581    0.9163   58.3670    0.9244   -0.0000   -0.0000
  0.670   58.3749    0.8370   58.3198    0.9275   58.3291    0.9258   58.3360    0.8225   58.4408    0.9273   58.4497    0.9355   -0.0000   -0.0000
  0.680   58.4589    0.8475   58.4035    0.9384   58.4128    0.9367   58.4199    0.8330   58.5249    0.9385   58.5338    0.9467   -0.0000   -0.0000
  0.690   58.5443    0.8580   58.4887    0.9495   58.4980    0.9478   58.5053    0.8436   58.6106    0.9498   58.6195    0.9579   -0.0000   -0.0000
  0.700   58.6313    0.8687   58.5754    0.9607   58.5847    0.9589   58.5922    0.8543   58.6978    0.9612   58.7067    0.9693   -0.0000   -0.0000
  0.710   58.7198    0.8795   58.6636    0.9720   58.6730    0.9702   58.6806    0.8651   58.7865    0.9727   58.7954    0.9808   -0.0000   -0.0000
  0.720   58.8098    0.8903   58.7533    0.9833   58.7628    0.9816   58.7706    0.8760   58.8767    0.9843   58.8857    0.9925   -0.0000   -0.0000
  0.730   58.9014    0.9013   58.8447    0.9949   58.8541    0.9931   58.8621    0.8871   58.9686    0.9960   58.9775    1.0042   -0.0000   -0.0000
  0.740   58.9946    0.9124   58.9375    1.0065   58.9470    1.0047   58.9553    0.8982   59.0620    1.0079   59.0709    1.0161   -0.0000   -0.0000
  0.750   59.0893    0.9236   59.0320    1.0182   59.0415    1.0164   59.0499    0.9094   59.1570    1.0199   59.1659    1.0280   -0.0000   -0.0000
  0.760   59.1856    0.9350   59.1280    1.0301   59.1376    1.0283   59.1462    0.9208   59.2536    1.0320   59.2626    1.0402   -0.0000   -0.0000
  0.770   59.2836    0.9464   59.2257    1.0421   59.2353    1.0403   59.2442    0.9323   59.3518    1.0442   59.3608    1.0524   -0.0000   -0.0000
  0.780   59.3832    0.9580   59.3250    1.0542   59.3346    1.0524   59.3437    0.9439   59.4516    1.0566   59.4607    1.0648   -0.0000   -0.0000
  0.790   59.4844    0.9697   59.4259    1.0665   59.4356    1.0646   59.4449    0.9556   59.5531    1.0691   59.5622    1.0773   -0.0000   -0.0000
  0.800   59.5874    0.9815   59.5285    1.0789   59.5382    1.0770   59.5477    0.9675   59.6563    1.0817   59.6654    1.0899   -0.0000   -0.0000
  0.810   59.6919    0.9934   59.6327    1.0914   59.6425    1.0895   59.6522    0.9795   59.7612    1.0945   59.7702    1.1027   -0.0000   -0.0000
  0.820   59.7982    1.0055   59.7387    1.1041   59.7485    1.1022   59.7585    0.9916   59.8677    1.1074   59.8768    1.1156   -0.0000   -0.0000
  0.830   59.9062    1.0177   59.8463    1.1169   59.8562    1.1150   59.8664    1.0038   59.9760    1.1205   59.9851    1.1286   -0.0000   -0.0000
  0.840   60.0159    1.0301   59.9557    1.1298   59.9656    1.1279   59.9760    1.0162   60.0860    1.1337   60.0951    1.1418   -0.0000   -0.0000
  0.850   60.1274    1.0425   60.0668    1.1429   60.0767    1.1410   60.0874    1.0287   60.1978    1.1470   60.2069    1.1552   -0.0000   -0.0000
  0.860   60.2406    1.0552   60.1797    1.1561   60.1897    1.1542   60.2006    1.0414   60.3113    1.1605   60.3204    1.1687   -0.0000   -0.0000
  0.870   60.3556    1.0679   60.2943    1.1695   60.3044    1.1676   60.3155    1.0542   60.4266    1.1742   60.4358    1.1823   -0.0000   -0.0000
  0.880   60.4724    1.0808   60.4108    1.1831   60.4208    1.1811   60.4323    1.0671   60.5437    1.1880   60.5529    1.1962   -0.0000   -0.0000
  0.890   60.5910    1.0939   60.5290    1.1968   60.5391    1.1948   60.5509    1.0802   60.6627    1.2020   60.6719    1.2101   -0.0000   -0.0000
  0.900   60.7115    1.1071   60.6491    1.2107   60.6593    1.2087   60.6713    1.0935   60.7835    1.2161   60.7927    1.2243   -0.0000   -0.0000
  0.910   60.8338    1.1205   60.7711    1.2247   60.7813    1.2227   60.7935    1.1069   60.9061    1.2304   60.9154    1.2386   -0.0000   -0.0000
  0.920   60.9580    1.1340   60.8949    1.2389   60.9052    1.2369   60.9177    1.1205   61.0307    1.2449   61.0399    1.2531   -0.0000   -0.0000
  0.930   61.0842    1.1477   61.0206    1.2533   61.0309    1.2513   61.0437    1.1342   61.1572    1.2596   61.1664    1.2677   -0.0000   -0.0000
  0.940   61.2122    1.1616   61.1483    1.2678   61.1586    1.2658   61.1717    1.1481   61.2856    1.2744   61.2948    1.2826   -0.0000   -0.0000
  0.950   61.3422    1.1756   61.2779    1.2825   61.2882    1.2805   61.3016    1.1622   61.4159    1.2894   61.4252    1.2976   -0.0000   -0.0000
  0.960   61.4741    1.1898   61.4094    1.2975   61.4198    1.2954   61.4335    1.1764   61.5482    1.3046   61.5575    1.3128   -0.0000   -0.0000
  0.970   61.6081    1.2042   61.5429    1.3125   61.5534    1.3105   61.5674    1.1908   61.6826    1.3200   61.6919    1.3282   -0.0000   -0.0000
  0.980   61.7440    1.2187   61.6785    1.3278   61.6890    1.3258   61.7033    1.2054   61.8189    1.3356   61.8282    1.3438   -0.0000   -0.0000
  0.990   61.8820    1.2335   61.8160    1.3433   61.8266    1.3412   61.8412    1.2202   61.9573    1.3514   61.9667    1.3596   -0.0000   -0.0000
  1.000   62.0221    1.2484   61.9556    1.3590   61.9663    1.3569   61.9812    1.2352   62.0977    1.3674   62.1071    1.3755   -0.0000   -0.0000
  1.010   62.1643    1.2635   62.0973    1.3749   62.1080    1.3728   62.1233    1.2503   62.2403    1.3835   62.2497    1.3917   -0.0000   -0.0000
  1.020   62.3085    1.2788   62.2412    1.3909   62.2519    1.3888   62.2675    1.2657   62.3850    1.3999   62.3944    1.4081   -0.0000   -0.0000
  1.030   62.4549    1.2943   62.3871    1.4072   62.3979    1.4051   62.4138    1.2812   62.5318    1.4166   62.5412    1.4247   -0.0000   -0.0000
  1.040   62.6035    1.3101   62.5352    1.4237   62.5460    1.4216   62.5623    1.2970   62.6808    1.4334   62.6903    1.4416   -0.0000   -0.0000
  1.050   62.7543    1.3260   62.6855    1.4405   62.6964    1.4383   62.7130    1.3130   62.8320    1.4504   62.8415    1.4586   -0.0000   -0.0000
  1.060   62.9072    1.3421   62.8380    1.4574   62.8489    1.4553   62.8659    1.3291   62.9854    1.4677   62.9949    1.4759   -0.0000   -0.0000
  1.070   63.0625    1.3585   62.9927    1.4746   63.0037    1.4724   63.0211    1.3455   63.1411    1.4852   63.1506    1.4934   -0.0000   -0.0000
  1.080   63.2200    1.3750   63.1497    1.4920   63.1608    1.4898   63.1785    1.3622   63.2991    1.5030   63.3086    1.5112   -0.0000   -0.0000
  1.090   63.3798    1.3918   63.3090    1.5096   63.3202    1.5075   63.3383    1.3790   63.4594    1.5210   63.4690    1.5292   -0.0000   -0.0000
  1.100   63.5420    1.4089   63.4707    1.5275   63.4819    1.5253   63.5004    1.3961   63.6220    1.5392   63.6316    1.5474   -0.0000   -0.0000
  1.110   63.7065    1.4261   63.6347    1.5456   63.6459    1.5435   63.6648    1.4134   63.7870    1.5577   63.7967    1.5659   -0.0000   -0.0000
  1.120   63.8734    1.4436   63.8011    1.5640   63.8124    1.5618   63.8317    1.4309   63.9545    1.5765   63.9641    1.5847   -0.0000   -0.0000
  1.130   64.0428    1.4614   63.9699    1.5827   63.9813    1.5805   64.0010    1.4487   64.1243    1.5955   64.1340    1.6037   -0.0000   -0.0000
  1.140   64.2146    1.4794   64.1412    1.6016   64.1526    1.5994   64.1728    1.4668   64.2967    1.6148   64.3064    1.6230   -0.0000   -0.0000
  1.150   64.3890    1.4976   64.3150    1.6208   64.3264    1.6185   64.3470    1.4851   64.4715    1.6343   64.4813    1.6425   -0.0000   -0.0000
  1.160   64.5659    1.5162   64.4913    1.6402   64.5028    1.6380   64.5238    1.5036   64.6489    1.6542   64.6587    1.6624   -0.0000   -0.0000
  1.170   64.7453    1.5350   64.6702    1.6600   64.6817    1.6577   64.7032    1.5225   64.8289    1.6743   64.8387    1.6825   -0.0000   -0.0000
  1.180   64.9274    1.5540   64.8516    1.6800   64.8633    1.6777   64.8852    1.5416   65.0115    1.6947   65.0214    1.7029   -0.0000   -0.0000
  1.190   65.1121    1.5734   65.0357    1.7003   65.0474    1.6980   65.0698    1.5610   65.1968    1.7154   65.2067    1.7237   -0.0000   -0.0000
  1.200   65.2995    1.5930   65.2225    1.7209   65.2343    1.7186   65.2571    1.5807   65.3848    1.7365   65.3946    1.7447   -0.0000   -0.0000
  1.210   65.4896    1.6129   65.4120    1.7418   65.4238    1.7396   65.4472    1.6007   65.5755    1.7578   65.5854    1.7660   -0.0000   -0.0000
  1.220   65.6824    1.6331   65.6042    1.7631   65.6161    1.7608   65.6400    1.6209   65.7689    1.7795   65.7789    1.7877   -0.0000   -0.0000
  1.230   65.8781    1.6536   65.7993    1.7846   65.8112    1.7823   65.8356    1.6415   65.9652    1.8015   65.9752    1.8097   -0.0000   -0.0000
  1.240   66.0766    1.6745   65.9971    1.8065   66.0092    1.8042   66.0340    1.6624   66.1643    1.8238   66.1743    1.8320   -0.0000   -0.0000
  1.250   66.2780    1.6956   66.1979    1.8287   66.2100    1.8264   66.2354    1.6836   66.3664    1.8465   66.3764    1.8547   -0.0000   -0.0000
  1.260   66.4824    1.7171   66.4015    1.8513   66.4137    1.8490   66.4396    1.7052   66.5714    1.8695   66.5814    1.8777   -0.0000   -0.0000
  1.270   66.6897    1.7389   66.6082    1.8742   66.6204    1.8719   66.6469    1.7270   66.7793    1.8929   66.7894    1.9011   -0.0000   -0.0000
  1.280   66.9000    1.7611   66.8178    1.8975   66.8301    1.8952   66.8571    1.7493   66.9903    1.9166   67.0004    1.9249   -0.0000   -0.0000
  1.290   67.1135    1.7836   67.0305    1.9211   67.0429    1.9188   67.0705    1.7719   67.2044    1.9408   67.2146    1.9490   -0.0000   -0.0000
  1.300   67.3300    1.8065   67.2463    1.9452   67.2588    1.9428   67.2869    1.7948   67.4216    1.9653   67.4318    1.9735   -0.0000   -0.0000
  1.310   67.5497    1.8297   67.4653    1.9696   67.4778    1.9672   67.5066    1.8181   67.6420    1.9902   67.6522    1.9984   -0.0000   -0.0000
  1.320   67.7726    1.8533   67.6874    1.9944   67.7000    1.9920   67.7294    1.8418   67.8656    2.0155   67.8759    2.0237   -0.0000   -0.0000
  1.330   67.9988    1.8773   67.9129    2.0196   67.9255    2.0172   67.9555    1.8658   68.0926    2.0412   68.1028    2.0494   -0.0000   -0.0000
  1.340   68.2283    1.9017   68.1416    2.0452   68.1543    2.0428   68.1850    1.8903   68.3228    2.0673   68.3331    2.0756   -0.0000   -0.0000
  1.350   68.4612    1.9265   68.3737    2.0712   68.3865    2.0688   68.4178    1.9152   68.5564    2.0939   68.5668    2.1021   -0.0000   -0.0000
  1.360   68.6975    1.9517   68.6092    2.0977   68.6221    2.0953   68.6540    1.9405   68.7935    2.1209   68.8039    2.1292   -0.0000   -0.0000
  1.370   68.9373    1.9774   68.8482    2.1246   68.8611    2.1222   68.8937    1.9662   69.0341    2.1484   69.0445    2.1566   -0.0000   -0.0000
  1.380   69.1806    2.0034   69.0907    2.1520   69.1037    2.1495   69.1370    1.9923   69.2782    2.1763   69.2887    2.1846   -0.0000   -0.0000
  1.390   69.4276    2.0299   69.3368    2.1798   69.3499    2.1773   69.3839    2.0189   69.5260    2.2047   69.5365    2.2130   -0.0000   -0.0000
  1.400   69.6782    2.0569   69.5865    2.2081   69.5997    2.2056   69.6345    2.0460   69.7774    2.2336   69.7880    2.2419   -0.0000   -0.0000
  1.410   69.9325    2.0843   69.8400    2.2369   69.8533    2.2344   69.8887    2.0735   70.0326    2.2630   70.0432    2.2712   -0.0000   -0.0000
  1.420   70.1907    2.1123   70.0972    2.2662   70.1106    2.2637   70.1468    2.1015   70.2916    2.2929   70.3023    2.3012   -0.0000   -0.0000
  1.430   70.4527    2.1406   70.3583    2.2960   70.3718    2.2935   70.4088    2.1300   70.5545    2.3234   70.5652    2.3316   -0.0000   -0.0000
  1.440   70.7186    2.1695   70.6233    2.3263   70.6369    2.3238   70.6746    2.1590   70.8213    2.3543   70.8321    2.3625   -0.0000   -0.0000
  1.450   70.9885    2.1990   70.8923    2.3572   70.9059    2.3547   70.9445    2.1885   71.0922    2.3858   71.1029    2.3941   -0.0000   -0.0000
  1.460   71.2626    2.2289   71.1654    2.3886   71.1791    2.3861   71.2185    2.2185   71.3671    2.4179   71.3779    2.4261   -0.0000   -0.0000
  1.470   71.5407    2.2594   71.4425    2.4206   71.4563    2.4181   71.4966    2.2491   71.6462    2.4506   71.6571    2.4588   -0.0000   -0.0000
  1.480   71.8231    2.2904   71.7239    2.4531   71.7378    2.4506   71.7789    2.2803   71.9295    2.4839   71.9404    2.4921   -0.0000   -0.0000
  1.490   72.1097    2.3220   72.0095    2.4863   72.0235    2.4838   72.0655    2.3120   72.2172    2.5177   72.2281    2.5259   -0.0000   -0.0000
  1.500   72.4008    2.3542   72.2995    2.5201   72.3136    2.5175   72.3565    2.3443   72.5092    2.5522   72.5202    2.5604   -0.0000   -0.0000
  1.510   72.6963    2.3870   72.5940    2.5545   72.6081    2.5519   72.6519    2.3772   72.8057    2.5874   72.8168    2.5956   -0.0000   -0.0000
  1.520   72.9963    2.4204   72.8929    2.5895   72.9071    2.5870   72.9519    2.4107   73.1068    2.6231   73.1179    2.6313   -0.0000   -0.0000
  1.530   73.3009    2.4545   73.1965    2.6252   73.2108    2.6227   73.2565    2.4449   73.4125    2.6596   73.4237    2.6678   -0.0000   -0.0000
  1.540   73.6103    2.4892   73.5047    2.6616   73.5191    2.6590   73.5659    2.4797   73.7229    2.6968   73.7342    2.7050   -0.0000   -0.0000
  1.550   73.9245    2.5245   73.8177    2.6986   73.8322    2.6961   73.8800    2.5152   74.0382    2.7347   74.0495    2.7429   -0.0000   -0.0000
  1.560   74.2436    2.5606   74.1356    2.7364   74.1502    2.7339   74.1990    2.5514   74.3584    2.7733   74.3697    2.7815   -0.0000   -0.0000
  1.570   74.5676    2.5973   74.4585    2.7749   74.4732    2.7724   74.5231    2.5883   74.6836    2.8126   74.6950    2.8208   -0.0000   -0.0000
  1.580   74.8968    2.6348   74.7864    2.8142   74.8012    2.8117   74.8522    2.6259   75.0139    2.8528   75.0254    2.8610   -0.0000   -0.0000
  1.590   75.2311    2.6730   75.1195    2.8543   75.1344    2.8517   75.1865    2.6642   75.3495    2.8937   75.3610    2.9019   -0.0000   -0.0000
  1.600   75.5708    2.7120   75.4579    2.8951   75.4729    2.8926   75.5261    2.7034   75.6904    2.9355   75.7019    2.9436   -0.0000   -0.0000
  1.610   75.9158    2.7517   75.8016    2.9368   75.8168    2.9342   75.8711    2.7433   76.0366    2.9781   76.0483    2.9862   -0.0000   -0.0000
  1.620   76.2664    2.7923   76.1509    2.9793   76.1661    2.9767   76.2217    2.7840   76.3885    3.0215   76.4002    3.0297   -0.0000   -0.0000
  1.630   76.6226    2.8337   76.5057    3.0226   76.5211    3.0201   76.5779    2.8256   76.7459    3.0659   76.7577    3.0740   -0.0000   -0.0000
  1.640   76.9845    2.8760   76.8663    3.0669   76.8817    3.0643   76.9398    2.8680   77.1092    3.1111   77.1210    3.1192   -0.0000   -0.0000
  1.650   77.3523    2.9191   77.2326    3.1121   77.2482    3.1095   77.3076    2.9113   77.4783    3.1573   77.4902    3.1654   -0.0000   -0.0000
  1.660   77.7260    2.9631   77.6050    3.1582   77.6207    3.1556   77.6813    2.9556   77.8535    3.2045   77.8655    3.2126   -0.0000   -0.0000
  1.670   78.1059    3.0081   77.9834    3.2053   77.9992    3.2027   78.0612    3.0007   78.2348    3.2526   78.2468    3.2607   -0.0000   -0.0000
  1.680   78.4921    3.0540   78.3680    3.2534   78.3839    3.2508   78.4474    3.0469   78.6223    3.3018   78.6345    3.3099   -0.0000   -0.0000
  1.690   78.8846    3.1010   78.7590    3.3025   78.7750    3.2999   78.8399    3.0940   79.0163    3.3521   79.0285    3.3601   -0.0000   -0.0000
  1.700   79.2836    3.1489   79.1564    3.3526   79.1726    3.3501   79.2389    3.1421   79.4168    3.4034   79.4291    3.4115   -0.0000   -0.0000
  1.710   79.6893    3.1979   79.5605    3.4039   79.5768    3.4013   79.6447    3.1913   79.8241    3.4558   79.8364    3.4639   -0.0000   -0.0000
  1.720   80.1018    3.2479   79.9714    3.4563   79.9878    3.4537   80.0572    3.2416   80.2381    3.5094   80.2506    3.5175   -0.0000   -0.0000
  1.730   80.5212    3.2991   80.3892    3.5098   80.4057    3.5073   80.4767    3.2930   80.6592    3.5642   80.6717    3.5722   -0.0000   -0.0000
  1.740   80.9478    3.3514   80.8140    3.5646   80.8307    3.5620   80.9033    3.3456   81.0874    3.6202   81.1000    3.6282   -0.0000   -0.0000
  1.750   81.3816    3.4049   81.2461    3.6205   81.2629    3.6180   81.3372    3.3994   81.5229    3.6775   81.5356    3.6855   -0.0000   -0.0000
  1.760   81.8229    3.4596   81.6856    3.6777   81.7025    3.6752   81.7785    3.4543   81.9659    3.7361   81.9787    3.7441   -0.0000   -0.0000
  1.770   82.2718    3.5156   82.1327    3.7363   82.1497    3.7337   82.2275    3.5106   82.4165    3.7960   82.4294    3.8040   -0.0000   -0.0000
  1.780   82.7285    3.5729   82.5875    3.7962   82.6047    3.7936   82.6843    3.5682   82.8750    3.8573   82.8880    3.8653   -0.0000   -0.0000
  1.790   83.1932    3.6315   83.0502    3.8574   83.0676    3.8549   83.1491    3.6271   83.3415    3.9201   83.3546    3.9280   -0.0000   -0.0000
  1.800   83.6661    3.6915   83.5211    3.9201   83.5386    3.9176   83.6220    3.6874   83.8162    3.9843   83.8294    3.9922   -0.0000   -0.0000
  1.810   84.1473    3.7529   84.0003    3.9843   84.0179    3.9818   84.1033    3.7491   84.2993    4.0501   84.3126    4.0579   -0.0000   -0.0000
  1.820   84.6370    3.8158   84.4880    4.0501   84.5058    4.0475   84.5932    3.8123   84.7911    4.1174   84.8044    4.1252   -0.0000   -0.0000
  1.830   85.1356    3.8803   84.9845    4.1174   85.0024    4.1149   85.0919    3.8771   85.2916    4.1863   85.3051    4.1941   -0.0000   -0.0000
  1.840   85.6431    3.9463   85.4898    4.1863   85.5079    4.1838   85.5995    3.9435   85.8012    4.2570   85.8148    4.2647   -0.0000   -0.0000
  1.850   86.1599    4.0139   86.0044    4.2569   86.0226    4.2544   86.1164    4.0115   86.3200    4.3293   86.3337    4.3371   -0.0000   -0.0000
  1.860   86.6861    4.0832   86.5283    4.3293   86.5467    4.3268   86.6428    4.0812   86.8484    4.4035   86.8622    4.4112   -0.0000   -0.0000
  1.870   87.2219    4.1542   87.0618    4.4035   87.0804    4.4010   87.1788    4.1526   87.3864    4.4795   87.4004    4.4872   -0.0000   -0.0000
  1.880   87.7677    4.2271   87.6053    4.4795   87.6239    4.4771   87.7248    4.2259   87.9345    4.5575   87.9486    4.5651   -0.0000   -0.0000
  1.890   88.3237    4.3018   88.1588    4.5575   88.1776    4.5551   88.2810    4.3010   88.4928    4.6374   88.5070    4.6451   -0.0000   -0.0000
  1.900   88.8902    4.3785   88.7227    4.6375   88.7417    4.6351   88.8477    4.3781   89.0616    4.7195   89.0759    4.7270   -0.0000   -0.0000
  1.910   89.4674    4.4571   89.2973    4.7196   89.3165    4.7172   89.4251    4.4573   89.6412    4.8036   89.6556    4.8111   -0.0000   -0.0000
  1.920   90.0556    4.5378   89.8829    4.8038   89.9022    4.8014   90.0135    4.5385   90.2318    4.8900   90.2464    4.8975   -0.0000   -0.0000
  1.930   90.6550    4.6207   90.4796    4.8902   90.4992    4.8878   90.6133    4.6218   90.8338    4.9786   90.8486    4.9861   -0.0000   -0.0000
  1.940   91.2661    4.7058   91.0880    4.9789   91.1077    4.9766   91.2246    4.7075   91.4475    5.0696   91.4624    5.0770   -0.0000   -0.0000
  1.950   91.8892    4.7932   91.7081    5.0701   91.7280    5.0677   91.8480    4.7954   92.0732    5.1631   92.0883    5.1705   -0.0000   -0.0000
  1.960   92.5245    4.8830   92.3405    5.1637   92.3605    5.1614   92.4836    4.8858   92.7112    5.2592   92.7264    5.2665   -0.0000   -0.0000
  1.970   93.1723    4.9753   92.9853    5.2598   93.0056    5.2576   93.1318    4.9787   93.3619    5.3579   93.3773    5.3651   -0.0000   -0.0000
  1.980   93.8332    5.0701   93.6431    5.3587   93.6635    5.3564   93.7930    5.0741   94.0256    5.4593   94.0412    5.4665   -0.0000   -0.0000
  1.990   94.5074    5.1677   94.3140    5.4603   94.3347    5.4580   94.4675    5.1723   94.7027    5.5636   94.7184    5.5708   -0.0000   -0.0000
  2.000   95.1952    5.2680   94.9986    5.5647   95.0194    5.5626   95.1558    5.2733   95.3936    5.6709   95.4095    5.6780   -0.0000   -0.0000
  2.010   95.8972    5.3712   95.6972    5.6722   95.7182    5.6701   95.8582    5.3772   96.0987    5.7812   96.1148    5.7883   -0.0000   -0.0000
  2.020   96.6137    5.4774   96.4102    5.7828   96.4314    5.7807   96.5751    5.4841   96.8184    5.8948   96.8346    5.9017   -0.0000   -0.0000
  2.030   97.3451    5.5867   97.1380    5.8966   97.1595    5.8945   97.3070    5.5942   97.5531    6.0117   97.5695    6.0186   -0.0000   -0.0000
  2.040   98.0919    5.6993   97.8812    6.0137   97.9028    6.0117   98.0544    5.7076   98.3032    6.1320   98.3199    6.1389   -0.0000   -0.0000
  2.050   98.8546    5.8152   98.6400    6.1344   98.6619    6.1324   98.8176    5.8244   99.0693    6.2560   99.0862    6.2627   -0.0000   -0.0000
  2.060   99.6336    5.9347   99.4151    6.2587   99.4372    6.2567   99.5971    5.9447   99.8519    6.3837   99.8689    6.3904   -0.0000   -0.0000
  2.070  100.4294    6.0578  100.2069    6.3867  100.2293    6.3848  100.3936    6.0688  100.6514    6.5154  100.6686    6.5220   -0.0000   -0.0000
  2.080  101.2426    6.1848  101.0160    6.5188  101.0386    6.5169  101.2075    6.1967  101.4683    6.6511  101.4858    6.6576   -0.0000   -0.0000
  2.090  102.0738    6.3157  101.8429    6.6549  101.8657    6.6531  102.0393    6.3286  102.3033    6.7910  102.3211    6.7975   -0.0000   -0.0000
  2.100  102.9234    6.4508  102.6881    6.7953  102.7111    6.7935  102.8896    6.4648  103.1569    6.9354  103.1749    6.9418   -0.0000   -0.0000
  2.110  103.7921    6.5903  103.5522    6.9402  103.5755    6.9385  103.7591    6.6053  104.0297    7.0845  104.0479    7.0907   -0.0000   -0.0000
  2.120  104.6806    6.7342  104.4359    7.0897  104.4595    7.0881  104.6483    6.7504  104.9223    7.2383  104.9408    7.2444   -0.0000   -0.0000
  2.130  105.5893    6.8829  105.3398    7.2442  105.3637    7.2426  105.5580    6.9003  105.8354    7.3972  105.8541    7.4032   -0.0000   -0.0000
  2.140  106.5192    7.0365  106.2646    7.4037  106.2887    7.4022  106.4887    7.0552  106.7696    7.5614  106.7887    7.5673   -0.0000   -0.0000
  2.150  107.4707    7.1953  107.2110    7.5686  107.2354    7.5671  107.4412    7.2153  107.7258    7.7311  107.7451    7.7369   -0.0000   -0.0000
  2.160  108.4448    7.3595  108.1797    7.7390  108.2043    7.7376  108.4162    7.3808  108.7045    7.9065  108.7241    7.9122   -0.0000   -0.0000
  2.170  109.4421    7.5294  109.1714    7.9152  109.1964    7.9139  109.4146    7.5521  109.7067    8.0880  109.7266    8.0935   -0.0000   -0.0000
  2.180  110.4635    7.7051  110.1871    8.0975  110.2123    8.0963  110.4371    7.7294  110.7330    8.2758  110.7533    8.2812   -0.0000   -0.0000
  2.190  111.5098    7.8871  111.2275    8.2863  111.2530    8.2851  111.4847    7.9130  111.7845    8.4702  111.8051    8.4755   -0.0000   -0.0000
  2.200  112.5820    8.0756  112.2935    8.4817  112.3193    8.4806  112.5581    8.1031  112.8620    8.6716  112.8829    8.6767   -0.0000   -0.0000
  2.210  113.6809    8.2709  113.3860    8.6841  113.4121    8.6831  113.6583    8.3002  113.9663    8.8802  113.9877    8.8851   -0.0000   -0.0000
  2.220  114.8076    8.4733  114.5060    8.8939  114.5325    8.8930  114.7863    8.5045  115.0986    9.0965  115.1204    9.1012   -0.0000   -0.0000
  2.230  115.9630    8.6833  115.6546    9.1114  115.6814    9.1107  115.9432    8.7164  116.2599    9.3207  116.2820    9.3253   -0.0000   -0.0000
  2.240  117.1483    8.9011  116.8328    9.3371  116.8599    9.3364  117.1301    8.9363  117.4511    9.5534  117.4737    9.5579   -0.0000   -0.0000
  2.250  118.3646    9.1273  118.0416    9.5713  118.0691    9.5707  118.3480    9.1646  118.6736    9.7950  118.6966    9.7992   -0.0000   -0.0000
  2.260  119.6131    9.3622  119.2824    9.8144  119.3103    9.8140  119.5982    9.4017  119.9285   10.0459  119.9519   10.0499   -0.0000   -0.0000
  2.270  120.8950    9.6063  120.5564   10.0670  120.5846   10.0668  120.8820    9.6482  121.2170   10.3066  121.2409   10.3104   -0.0000   -0.0000
  2.280  122.2117    9.8601  121.8648   10.3296  121.8933   10.3295  122.2006    9.9045  122.5405   10.5776  122.5649   10.5813   -0.0000   -0.0000
  2.290  123.5645   10.1241  123.2090   10.6027  123.2379   10.6027  123.5555   10.1712  123.9004   10.8596  123.9253   10.8630   -0.0000   -0.0000
  2.300  124.9550   10.3989  124.5905   10.8868  124.6198   10.8870  124.9482   10.4488  125.2981   11.1530  125.3236   11.1562   -0.0000   -0.0000
  2.310  126.3847   10.6850  126.0108   11.1826  126.0406   11.1829  126.3801   10.7379  126.7354   11.4586  126.7614   11.4615   -0.0000   -0.0000
  2.320  127.8553   10.9832  127.4716   11.4907  127.5018   11.4912  127.8531   11.0393  128.2137   11.7770  128.2403   11.7797   -0.0000   -0.0000
  2.330  129.3684   11.2941  128.9745   11.8119  129.0051   11.8126  129.3687   11.3535  129.7348   12.1090  129.7620   12.1114   -0.0000   -0.0000
  2.340  130.9259   11.6185  130.5214   12.1469  130.5524   12.1478  130.9290   11.6814  131.3006   12.4554  131.3285   12.4575   -0.0000   -0.0000
  2.350  132.5297   11.9571  132.1141   12.4965  132.1456   12.4976  132.5357   12.0237  132.9131   12.8170  132.9416   12.8187   -0.0000   -0.0000
  2.360  134.1819   12.3109  133.7548   12.8616  133.7867   12.8629  134.1909   12.3814  134.5742   13.1947  134.6034   13.1961   -0.0000   -0.0000
  2.370  135.8847   12.6807  135.4454   13.2431  135.4779   13.2446  135.8969   12.7554  136.2862   13.5895  136.3162   13.5906   -0.0000   -0.0000
  2.380  137.6404   13.0675  137.1884   13.6420  137.2213   13.6438  137.6559   13.1466  138.0514   14.0024  138.0822   14.0032   -0.0000   -0.0000
  2.390  139.4514   13.4724  138.9861   14.0595  139.0195   14.0615  139.4705   13.5563  139.8723   14.4347  139.9039   14.4351   -0.0000   -0.0000
  2.400  141.3202   13.8966  140.8410   14.4967  140.8750   14.4990  141.3432   13.9854  141.7514   14.8876  141.7839   14.8876   -0.0000   -0.0000
  2.410  143.2498   14.3413  142.7560   14.9548  142.7905   14.9574  143.2768   14.4355  143.6916   15.3624  143.7250   15.3619   -0.0000   -0.0000
  2.420  145.2430   14.8078  144.7338   15.4354  144.7689   15.4383  145.2743   14.9077  145.6958   15.8605  145.7302   15.8596   -0.0000   -0.0000
  2.430  147.3029   15.2978  146.7777   15.9398  146.8133   15.9430  147.3388   15.4037  147.7672   16.3835  147.8026   16.3821   -0.0000   -0.0000
  2.440  149.4330   15.8126  148.8908   16.4696  148.9270   16.4732  149.4736   15.9250  149.9091   16.9331  149.9456   16.9313   -0.0000   -0.0000
  2.450  151.6367   16.3542  151.0766   17.0267  151.1135   17.0307  151.6824   16.4735  152.1251   17.5112  152.1627   17.5089   -0.0000   -0.0000
  2.460  153.9178   16.9243  153.3390   17.6130  153.3766   17.6174  153.9691   17.0510  154.4190   18.1199  154.4579   18.1170   -0.0000   -0.0000
  2.470  156.2805   17.5251  155.6819   18.2306  155.7201   18.2354  156.3376   17.6597  156.7949   18.7612  156.8351   18.7577   -0.0000   -0.0000
  2.480  158.7292   18.1588  158.1097   18.8817  158.1485   18.8869  158.7923   18.3018  159.2573   19.4376  159.2988   19.4336   -0.0000   -0.0000
  2.490  161.2684   18.8278  160.6268   19.5688  160.6664   19.5745  161.3381   18.9799  161.8107   20.1518  161.8537   20.1472   -0.0000   -0.0000
  2.500  163.9032   19.5349  163.2382   20.2948  163.2786   20.3010  163.9798   19.6967  164.4603   20.9067  164.5049   20.9013   -0.0000   -0.0000
  2.510  166.6390   20.2830  165.9492   21.0625  165.9904   21.0693  166.7230   20.4553  167.2114   21.7053  167.2577   21.6993   -0.0000   -0.0000
  2.520  169.4815   21.0754  168.7656   21.8753  168.8075   21.8826  169.5735   21.2589  170.0698   22.5512  170.1179   22.5444   -0.0000   -0.0000
  2.530  172.4371   21.9157  171.6933   22.7368  171.7361   22.7448  172.5374   22.1113  173.0419   23.4483  173.0918   23.4407   -0.0000   -0.0000
  2.540  175.5124   22.8078  174.7390   23.6510  174.7826   23.6597  175.6217   23.0165  176.1343   24.4006  176.1863   24.3923   -0.0000   -0.0000
  2.550  178.7147   23.7561  177.9098   24.6224  177.9544   24.6318  178.8336   23.9790  179.3543   25.4131  179.4085   25.4038   -0.0000   -0.0000
  2.560  182.0519   24.7655  181.2134   25.6558  181.2589   25.6660  182.1809   25.0037  182.7097   26.4907  182.7663   26.4805   -0.0000   -0.0000
  2.570  185.5323   25.8414  184.6581   26.7567  184.7045   26.7678  185.6722   26.0961  186.2091   27.6394  186.2682   27.6282   -0.0000   -0.0000
  2.580  189.1653   26.9897  188.2528   27.9311  188.3002   27.9431  189.3168   27.2624  189.8617   28.8654  189.9235   28.8532   -0.0000   -0.0000
  2.590  192.9608   28.2172  192.0073   29.1858  192.0558   29.1987  193.1247   28.5094  193.6774   30.1759  193.7421   30.1627   -0.0000   -0.0000
  2.600  196.9297   29.5313  195.9322   30.5282  195.9818   30.5423  197.1069   29.8448  197.6671   31.5790  197.7349   31.5646   -0.0000   -0.0000
  2.610  201.0837   30.9403  200.0391   31.9669  200.0898   31.9821  201.2751   31.2771  201.8424   33.0836  201.9137   33.0680   -0.0000   -0.0000
  2.620  205.4357   32.4538  204.3403   33.5113  204.3923   33.5277  205.6423   32.8159  206.2164   34.6997  206.2914   34.6828   -0.0000   -0.0000
  2.630  209.9998   34.0822  208.8498   35.1719  208.9030   35.1898  210.2226   34.4721  210.8029   36.4387  210.8819   36.4205   -0.0000   -0.0000
  2.640  214.7913   35.8377  213.5822   36.9609  213.6368   36.9803  215.0314   36.2581  215.6172   38.3133  215.7006   38.2937   -0.0001   -0.0000
  2.650  219.8270   37.7337  218.5541   38.8919  218.6101   38.9129  220.0857   38.1876  220.6760   40.3382  220.7642   40.3171   -0.0001   -0.0000
  2.660  225.1253   39.7856  223.7832   40.9803  223.8406   41.0031  225.4040   40.2765  225.9975   42.5297  226.0910   42.5071   -0.0003   -0.0000
  2.670  230.7065   42.0111  229.2893   43.2438  229.3482   43.2684  231.0065   42.5428  231.6018   44.9067  231.7011   44.8825   -0.0006   -0.0000
  2.680  236.5928   44.4303  235.0937   45.7024  235.1542   45.7292  236.9155   45.0072  237.5109   47.4908  237.6165   47.4649   -0.0014   -0.0000
  2.690  242.8087   47.0663  241.2203   48.3792  241.2824   48.4083  243.1557   47.6933  243.7489   50.3065  243.8614   50.2789   -0.0029   -0.0000
  2.700  249.3811   49.9457  247.6950   51.3008  247.7589   51.3325  249.7541   50.6285  250.3422   53.3824  250.4625   53.3530   -0.0059   -0.0000
  2.710  256.3398   53.0993  254.5467   54.4980  254.6123   54.5325  256.7406   53.8444  257.3202   56.7513  257.4490   56.7202   -0.0120   -0.0000
  2.720  263.7179   56.5628  261.8069   58.0062  261.8745   58.0440  264.1480   57.3778  264.7148   60.4516  264.8532   60.4186   -0.0239   -0.0000
  2.730  271.5515   60.3781  269.5107   61.8671  269.5802   61.9084  272.0129   61.2714  272.5616   64.5276  272.7105   64.4929   -0.0465   -0.0000
  2.740  279.8809   64.5939  277.6966   66.1292  277.7681   66.1743  280.3753   65.5756  280.8994   69.0318  281.0602   68.9953   -0.0886   -0.0001
  2.750  288.7506   69.2678  286.4071   70.8494  286.4806   70.8989  289.2797   70.3494  289.7710   74.0253  289.9450   73.9872   -0.1654   -0.0001
  2.760  298.2097   74.4678  295.6890   76.0952  295.7647   76.1496  298.7749   75.6629  299.2232   79.5809  299.4123   79.5413   -0.3020   -0.0002
  2.770  308.3122   80.2750  305.5939   81.9466  305.6718   82.0065  308.9147   81.5992  309.3075   85.7847  309.5134   85.7439   -0.5396   -0.0004
  2.780  319.1178   86.7859  316.1782   88.4990  316.2583   88.5650  319.7582   88.2578  320.0793   92.7397  320.3044   92.6982   -0.9433   -0.0008
  2.790  330.6914   94.1168  327.5032   95.8668  327.5855   95.9398  331.3694   95.7583  331.5989  100.5694  331.8458  100.5280   -1.6128   -0.0014
  2.800  343.1035  102.4081  339.6353  104.1880  339.7196  104.2689  343.8177  104.2452  343.9301  109.4232  344.2019  109.3825   -2.6966   -0.0024
  2.810  356.4299  111.8306  352.6449  113.6301  352.7312  113.7201  357.1768  113.8942  357.1396  119.4818  357.4400  119.4434   -4.4087   -0.0040
  2.820  370.7499  122.5932  366.6055  124.3975  366.6935  124.4977  371.5233  124.9202  371.2951  130.9664  371.6284  130.9318   -7.0465   -0.0066
  2.830  386.1445  134.9529  381.5912  136.7409  381.6806  136.8528  386.9340  137.5875  386.4613  144.1477  386.8325  144.1196  -11.0078   -0.0106
  2.840  402.6916  149.2277  397.6720  150.9697  397.7621  151.0951  403.4808  152.2232  402.6943  159.3601  403.1095  159.3420  -16.8038   -0.0168
  2.850  420.4590  165.8137  414.9065  167.4682  414.9965  167.6091  421.2227  169.2338  420.0318  177.0176  420.4980  177.0144  -25.0604   -0.0260
  2.860  439.4915  185.2060  433.3295  186.7152  433.4182  186.8739  440.1916  189.1274  438.4772  197.6351  439.0028  197.6536  -36.5038   -0.0394
  2.870  459.7902  208.0267  452.9318  209.3101  453.0173  209.4894  460.3695  212.5407  457.9745  221.8541  458.5689  221.9040  -51.9224   -0.0585
  2.880  481.2783  235.0584  473.6269  236.0041  473.7069  236.2071  481.6520  240.2727  478.3675  250.4733  479.0416  250.5683  -72.0995   -0.0850
  2.890  503.7466  267.2850  495.1989  267.7380  495.2698  267.9679  503.7891  273.3238  499.3370  284.4829  500.1023  284.6421  -97.7159   -0.1209
  2.900  526.7640  305.9355  517.2179  305.6816  517.2749  305.9422  526.2906  312.9358  520.3009  325.0954  521.1689  325.3458 -129.2271   -0.1684
  2.910  549.5376  352.5224  538.9073  351.2682  538.9436  351.5630  548.2790  360.6232  540.2624  373.7606  541.2422  374.1399 -166.7249   -0.2297
  2.920  570.6941  408.8508  558.9394  406.2001  558.9462  406.5323  568.2626  418.1669  557.5836  432.1336  558.6782  432.6937 -209.8049   -0.3068
  2.930  587.9531  476.9466  575.1316  472.3791  575.0970  472.7505  583.8058  487.5160  569.6691  501.9340  570.8667  502.7446 -257.4682   -0.4014
  2.940  597.6758  558.8019  584.0275  551.6661  583.9365  552.0762  591.0865  570.4887  572.5687  584.5898  573.8302  585.7392 -308.0889   -0.5146
  2.950  594.3304  655.7550  580.4032  645.3050  580.2376  645.7490  584.4087  668.0912  560.6022  680.4983  561.8404  682.0867 -359.4913   -0.6467
  2.960  570.0957  767.2483  556.9003  752.7742  556.6387  753.2413  555.9257  779.2248  526.2990  787.7360  527.3545  789.8523 -409.1866   -0.7971
  2.970  515.1924  888.7728  504.3207  869.8899  503.9394  870.3599  496.1857  898.6700  461.2553  900.2503  461.8824  902.9205 -454.8390   -0.9642
  2.980  420.0180 1009.3534  413.5667  986.4764  413.0423  986.9138  396.5002 1014.8460  358.6983 1006.2220  358.5914 1009.3313 -495.0522   -1.1462
  2.990  280.0994 1110.3417  280.1572 1085.1916  279.4778 1085.5393  253.8568 1109.1674  217.9468 1088.3482  216.8449 1091.5780 -530.5512   -1.3411
  3.000  102.7816 1168.8652  110.3911 1144.5351  109.5789 1144.7171   76.9380 1159.9840   48.9103 1128.1727   46.7605 1131.0388 -565.6627   -1.5490
  3.010  -89.7649 1167.7150  -75.6393 1147.7269  -76.5090 1147.6814 -111.9241 1152.1265 -127.6158 1114.2263 -130.5564 1116.2644 -609.5054   -1.7730
  3.020 -267.5182 1106.1436 -249.9188 1092.7490 -250.7393 1092.4735 -284.0526 1086.4291 -286.8449 1048.9078 -290.0996 1049.8943 -675.4826   -2.0212
  3.030 -406.7116 1001.0740 -389.1990  994.1910 -389.8907  993.7500 -417.5711  979.9549 -410.4631  947.7089 -413.5633  947.7266 -777.1343   -2.3068
  3.040 -499.0133  877.0010 -484.0056  874.6898 -484.5539  874.1686 -505.3519  856.1603 -492.5564  831.0942 -495.2126  830.4132 -919.5217   -2.6448
  3.050 -549.8650  754.6043 -537.9892  754.3643 -538.4330  753.8172 -552.9259  734.4332 -537.8478  716.1500 -539.9710  715.0652 *********   -3.0450
  3.060 -571.6011  645.6387 -561.9242  645.5395 -562.3155  644.9621 -571.8137  625.7280 -556.3850  612.9337 -558.0185  611.6668 *********   -3.5039
  3.070 -577.3988  552.4219 -568.1220  552.0029 -568.4671  551.3329 -573.9780  532.6948 -559.0174  524.3095 -560.2496  522.9786 *********   -3.9990
  3.080 -574.9580  469.5488 -565.0592  470.1841 -565.2570  469.3835 -567.0039  451.6593 -553.1673  447.1454 -554.0480  445.8003 *********   -4.4917
  3.090 -562.6610  393.1378 -553.2829  396.0624 -553.2321  395.2474 -551.4869  379.4415 -539.7034  377.9921 -540.2552  376.7120 *********   -4.9384
  3.100 -539.8311  327.1299 -532.3600  331.6885 -532.1220  330.9997 -528.0359  317.9432 -518.6455  318.2586 -518.9505  317.1201 -997.4130   -5.3049
  3.110 -511.6203  273.9469 -506.2279  278.9832 -505.9124  278.4449 -500.7330  268.0916 -493.3976  269.1975 -493.5479  268.2115 -739.3885   -5.5766
  3.120 -482.4909  231.7910 -478.7614  236.6256 -478.4309  236.2057 -472.9322  228.0927 -467.1876  229.4950 -467.2414  228.6418 -496.1743   -5.7590
  3.130 -454.4511  198.0243 -451.9289  202.3847 -451.6080  202.0485 -446.1809  195.6960 -441.6527  197.1649 -441.6427  196.4226 -303.4880   -5.8705
  3.140 -428.1802  170.5522 -426.5109  174.3686 -426.2067  174.0905 -421.0351  169.1099 -417.4482  170.5359 -417.3942  169.8867 -171.6412   -5.9336
  3.150 -403.8251  147.8774 -402.7557  151.1659 -402.4688  150.9283 -397.6333  147.0224 -394.7853  148.3520 -394.7004  147.7821  -92.3742   -5.9675
  3.160 -381.3316  128.9285 -380.6854  131.7372 -380.4138  131.5281 -375.9435  128.4712 -373.6830  129.6795 -373.5761  129.1776  -50.2441   -5.9860
  3.170 -360.5717  112.9211 -360.2250  115.3067 -359.9659  115.1177 -355.8638  112.7370 -354.0751  113.8143 -353.9526  113.3715  -31.1663   -5.9975
  3.180 -341.3931   99.2668 -341.2591  101.2848 -341.0094  101.1099 -337.2654   99.2718 -335.8586  100.2166 -335.7254   99.8257  -25.8599   -6.0070
  3.190 -323.6409   87.5152 -323.6579   89.2166 -323.4146   89.0513 -320.0124   87.6509 -318.9167   88.4666 -318.7763   88.1215  -29.7002   -6.0179
  3.200 -307.1656   77.3158 -307.2897   78.7455 -307.0498   78.5863 -303.9706   77.5407 -303.1293   78.2331 -302.9845   77.9288  -41.2313   -6.0330
  3.210 -291.8266   68.3916 -292.0265   69.5888 -291.7871   69.4331 -289.0118   68.6756 -288.3788   69.2516 -288.2320   68.9843  -60.6941   -6.0553
  3.220 -277.4930   60.5209 -277.7464   61.5198 -277.5043   61.3653 -275.0145   60.8420 -274.5519   61.3091 -274.4050   61.0753  -88.9442   -6.0880
  3.230 -264.0421   53.5239 -264.3334   54.3544 -264.0852   54.1992 -261.8641   53.8657 -261.5398   54.2318 -261.3949   54.0286 -126.6848   -6.1346
  3.240 -251.3573   47.2531 -251.6761   47.9414 -251.4182   47.7839 -249.4505   47.6036 -249.2371   47.8767 -249.0962   47.7016 -173.9016   -6.1985
  3.250 -239.3253   41.5862 -239.6655   42.1558 -239.3933   41.9945 -237.6664   41.9368 -237.5391   42.1253 -237.4047   41.9758 -229.5044   -6.2828
  3.260 -227.8312   36.4208 -228.1903   36.8931 -227.8983   36.7268 -226.4022   36.7658 -226.3387   36.8795 -226.2134   36.7525 -291.2761   -6.3899
  3.270 -216.7513   31.6734 -217.1312   32.0683 -216.8120   31.8960 -215.5408   32.0090 -215.5202   32.0600 -215.4068   31.9514 -356.2403   -6.5208
  3.280 -205.9445   27.2823 -206.3519   27.6185 -205.9957   27.4405 -204.9489   27.6056 -204.9522   27.6096 -204.8526   27.5136 -421.4661   -6.6757
  3.290 -195.2445   23.2214 -195.6925   23.5162 -195.2858   23.3349 -194.4696   23.5261 -194.4812   23.5036 -194.3949   23.4131 -485.1433   -6.8540
  3.300 -184.4617   19.5222 -184.9729   19.7896 -184.4980   19.6125 -183.9220   19.7916 -183.9315   19.7679 -183.8538   19.6763 -547.5605   -7.0552
  3.310 -173.4022   16.2912 -174.0103   16.5381 -173.4459   16.3812 -173.1129   16.4920 -173.1152   16.4961 -173.0384   16.4013 -611.4902   -7.2799
  3.320 -161.8778   13.7117 -162.6308   13.9324 -161.9540   13.8242 -161.8440   13.7947 -161.8371   13.8631 -161.7556   13.7688 -681.5678   -7.5304
  3.330 -149.6898   12.0725 -150.6528   12.2373 -149.8423   12.2246 -149.8989   11.9808 -149.8880   12.1688 -149.8035   12.0804 -762.5844   -7.8106
  3.340 -136.6416   11.8784 -137.8956   11.9101 -136.9399   12.0685 -137.0624   11.5547 -137.0832   11.9522 -137.0037   11.8682 -857.1422   -8.1256
  3.350 -122.7033   14.0225 -124.3205   13.7550 -123.2438   14.2012 -123.2853   13.4154 -123.4603   14.1441 -123.3916   14.0486 -963.5957   -8.4797
  3.360 -108.4696   19.8675 -110.4245   19.0080 -109.3450   19.8907 -109.1443   18.9424 -109.7723   20.0790 -109.6986   19.9431 *********   -8.8749
  3.370  -95.9438   30.7859  -97.9394   28.9824  -97.1406   30.3892  -96.6412   29.5333  -98.2092   30.8626  -98.0732   30.6757 *********   -9.3093
  3.380  -88.8623   46.4606  -90.2402   43.6259  -90.1114   45.3705  -89.5247   44.8742  -92.3143   45.6069  -92.0530   45.4311 *********   -9.7769
  3.390  -90.4844   62.8445  -90.6099   59.5220  -91.2872   61.0759  -91.0248   60.9072  -94.4114   60.1112  -94.0492   60.0524 *********  -10.2687
  3.400  -99.4665   73.9507  -98.3675   71.0230  -99.4884   71.9466  -99.7557   71.7137 -102.5269   69.3969 -102.1597   69.4913 *********  -10.7745
  3.410 -110.3567   77.3384 -108.6479   75.2765 -109.7305   75.5934 -110.3354   74.9414 -111.8893   71.9625 -111.5863   72.1770 *********  -11.2849
  3.420 -118.8556   75.1639 -117.1054   73.8760 -117.9347   73.8527 -118.5750   72.7225 -119.0837   69.8155 -118.8742   70.1064 *********  -11.7927
  3.430 -123.8911   70.6014 -122.3484   69.7977 -122.9322   69.6499 -123.4388   68.1424 -123.2850   65.5992 -123.1802   65.9281 *********  -12.2930
  3.440 -126.1541   65.7167 -124.8497   65.1581 -125.2628   64.9902 -125.5865   63.1915 -125.0577   61.0452 -125.0590   61.3768 *********  -12.7866
  3.450 -126.7490   61.4410 -125.6309   60.9811 -125.9372   60.8294 -126.0501   58.7600 -125.3079   56.9633 -125.4073   57.2632 *********  -13.3834
  3.460 -126.7027   57.9244 -125.6733   57.4615 -125.9347   57.3594 -125.7510   55.0130 -124.8738   53.5155 -125.0539   53.7542 *********  -14.3512
  3.470 -126.6979   54.7579 -125.6242   54.3889 -125.9114   54.2262 -125.2944   51.6818 -124.3200   50.4770 -124.5469   50.6200 *********  -15.1075
  3.480 -126.7912   51.2709 -125.7468   51.0394 -125.9571   50.8180 -124.8202   48.2331 -123.8194   47.3224 -124.0391   47.3749 *********  -15.5343
  3.490 -126.4579   47.1932 -125.4777   47.1031 -125.6023   46.8686 -123.9581   44.4505 -123.0065   43.8090 -123.1876   43.7995 -964.9373  -15.8890
  3.500 -125.2550   42.8491 -124.3834   42.8791 -124.4359   42.6631 -122.4094   40.5680 -121.5661   40.1392 -121.7013   40.1004 -837.7215  -16.1968
  3.510 -123.1848   38.7296 -122.4438   38.8352 -122.4474   38.6529 -120.1988   36.9376 -119.4872   36.6538 -119.5850   36.6082 -704.6137  -16.4558
  3.520 -120.5239   35.1164 -119.9095   35.2555 -119.8848   35.1081 -117.5465   33.7545 -116.9614   33.5607 -117.0337   33.5181 -573.2627  -16.6664
  3.530 -117.5586   32.0614 -117.0543   32.2056 -117.0147   32.0881 -114.6736   31.0451 -114.1977   30.9045 -114.2537   30.8677 -451.9208  -16.8325
  3.540 -114.4849   29.5038 -114.0716   29.6368 -114.0249   29.5431 -111.7302   28.7541 -111.3445   28.6449 -111.3900   28.6138 -346.7108  -16.9599
  3.550 -111.4139   27.3539 -111.0745   27.4678 -111.0249   27.3925 -108.8013   26.8074 -108.4891   26.7170 -108.5277   26.6908 -260.9225  -17.0558
  3.560 -108.4019   25.5293 -108.1226   25.6212 -108.0721   25.5598 -105.9298   25.1377 -105.6776   25.0592 -105.7114   25.0369 -195.0775  -17.1275
  3.570 -105.4744   23.9638 -105.2443   24.0332 -105.1939   23.9825 -103.1353   23.6911 -102.9322   23.6208 -102.9625   23.6016 -147.5435  -17.1817
  3.580 -102.6405   22.6067 -102.4512   22.6544 -102.4014   22.6121 -100.4247   22.4262 -100.2624   22.3621 -100.2900   22.3455 -115.3899  -17.2241
  3.590  -99.9013   21.4197  -99.7464   21.4474  -99.6974   21.4115  -97.7988   21.3116  -97.6705   21.2528  -97.6959   21.2382  -95.2149  -17.2591
  3.600  -97.2539   20.3740  -97.1285   20.3834  -97.0802   20.3526  -95.2551   20.3231  -95.1555   20.2696  -95.1791   20.2568  -83.7676  -17.2899
  3.610  -94.6937   19.4476  -94.5941   19.4407  -94.5465   19.4137  -92.7899   19.4424  -92.7146   19.3943  -92.7367   19.3831  -78.3107  -17.3187
  3.620  -92.2156   18.6235  -92.1388   18.6021  -92.0917   18.5783  -90.3989   18.6552  -90.3444   18.6131  -90.3652   18.6032  -76.7501  -17.3469
  3.630  -89.8142   17.8887  -89.7581   17.8546  -89.7114   17.8331  -88.0779   17.9503  -88.0411   17.9147  -88.0608   17.9061  -77.6049  -17.3754
  3.640  -87.4846   17.2328  -87.4474   17.1876  -87.4011   17.1680  -85.8226   17.3187  -85.8012   17.2906  -85.8198   17.2831  -79.8952  -17.4048
  3.650  -85.2221   16.6476  -85.2027   16.5929  -85.1565   16.5746  -83.6292   16.7533  -83.6210   16.7335  -83.6387   16.7271  -83.0080  -17.4353
  3.660  -83.0225   16.1266  -83.0200   16.0637  -82.9738   16.0465  -81.4941   16.2484  -81.4973   16.2379  -81.5142   16.2326  -86.5762  -17.4671
  3.670  -80.8819   15.6644  -80.8959   15.5948  -80.8495   15.5782  -79.4140   15.7993  -79.4272   15.7993  -79.4434   15.7949  -90.3870  -17.5003
  3.680  -78.7969   15.2570  -78.8270   15.1817  -78.7803   15.1656  -77.3862   15.4023  -77.4082   15.4139  -77.4237   15.4103  -94.3179  -17.5350
  3.690  -76.7645   14.9007  -76.8108   14.8209  -76.7637   14.8050  -75.4081   15.0543  -75.4377   15.0787  -75.4527   15.0760  -98.2971  -17.5711
  3.700  -74.7822   14.5930  -74.8448   14.5097  -74.7971   14.4938  -73.4776   14.7527  -73.5139   14.7912  -73.5284   14.7893 -102.2802  -17.6087
  3.710  -72.8478   14.3315  -72.9270   14.2456  -72.8786   14.2294  -71.5928   14.4955  -71.6352   14.5494  -71.6491   14.5483 -106.2372  -17.6477
  3.720  -70.9594   14.1143  -71.0558   14.0266  -71.0065   14.0101  -69.7522   14.2808  -69.8001   14.3517  -69.8136   14.3514 -110.1457  -17.6882
  3.730  -69.1156   13.9398  -69.2299   13.8511  -69.1795   13.8341  -67.9546   14.1073  -68.0077   14.1967  -68.0207   14.1970 -113.9878  -17.7301
  3.740  -67.3153   13.8068  -67.4484   13.7176  -67.3968   13.7001  -66.1994   13.9735  -66.2572   14.0829  -66.2699   14.0839 -117.7479  -17.7733
  3.750  -65.5578   13.7139  -65.7107   13.6248  -65.6577   13.6065  -64.4859   13.8782  -64.5484   14.0093  -64.5608   14.0109 -121.4125  -17.8180
  3.760  -63.8426   13.6598  -64.0165   13.5714  -63.9620   13.5522  -62.8139   13.8200  -62.8812   13.9746  -62.8931   13.9768 -124.9700  -17.8639
  3.770  -62.1697   13.6434  -62.3658   13.5559  -62.3096   13.5359  -61.1835   13.7977  -61.2556   13.9776  -61.2672   13.9804 -128.4105  -17.9111
  3.780  -60.5390   13.6633  -60.7590   13.5768  -60.7007   13.5558  -59.5948   13.8097  -59.6721   14.0168  -59.6833   14.0201 -131.7263  -17.9595
  3.790  -58.9509   13.7178  -59.1963   13.6326  -59.1359   13.6105  -58.0482   13.8542  -58.1312   14.0906  -58.1421   14.0943 -134.9122  -18.0091
  3.800  -57.4057   13.8051  -57.6785   13.7210  -57.6157   13.6978  -56.5443   13.9293  -56.6335   14.1970  -56.6440   14.2012 -137.9656  -18.0598
  3.810  -55.9040   13.9231  -56.2060   13.8399  -56.1405   13.8156  -55.0834   14.0327  -55.1797   14.3338  -55.1898   14.3385 -140.8875  -18.1115
  3.820  -54.4460   14.0693  -54.7793   13.9867  -54.7108   13.9612  -53.6660   14.1617  -53.7702   14.4984  -53.7798   14.5035 -143.6825  -18.1644
  3.830  -53.0317   14.2408  -53.3988   14.1582  -53.3270   14.1315  -52.2920   14.3132  -52.4053   14.6879  -52.4144   14.6934 -146.3601  -18.2181
  3.840  -51.6612   14.4346  -52.0643   14.3511  -51.9889   14.3234  -50.9613   14.4840  -51.0848   14.8990  -51.0934   14.9049 -148.9350  -18.2729
  3.850  -50.3337   14.6473  -50.7754   14.5620  -50.6961   14.5332  -49.6731   14.6704  -49.8084   15.1283  -49.8164   15.1345 -151.4282  -18.3285
  3.860  -49.0480   14.8753  -49.5311   14.7869  -49.4475   14.7572  -48.4262   14.8689  -48.5747   15.3720  -48.5821   15.3787 -153.8686  -18.3851
  3.870  -47.8024   15.1152  -48.3297   15.0221  -48.2415   14.9915  -47.2187   15.0755  -47.3821   15.6266  -47.3888   15.6337 -156.2937  -18.4425
  3.880  -46.5945   15.3634  -47.1689   15.2638  -47.0757   15.2326  -46.0480   15.2866  -46.2282   15.8886  -46.2341   15.8961 -158.7519  -18.5008
  3.890  -45.4211   15.6168  -46.0458   15.5084  -45.9472   15.4769  -44.9108   15.4989  -45.1098   16.1546  -45.1149   16.1626 -161.3037  -18.5601
  3.900  -44.2784   15.8727  -44.9567   15.7530  -44.8523   15.7213  -43.8033   15.7094  -44.0232   16.4220  -44.0275   16.4305 -164.0244  -18.6204
  3.910  -43.1622   16.1288  -43.8974   15.9949  -43.7869   15.9633  -42.7208   15.9156  -42.9642   16.6885  -42.9675   16.6976 -167.0059  -18.6818
  3.920  -42.0675   16.3838  -42.8632   16.2322  -42.7462   16.2011  -41.6585   16.1159  -41.9279   16.9527  -41.9303   16.9625 -170.3592  -18.7444
  3.930  -40.9894   16.6370  -41.8491   16.4637  -41.7253   16.4335  -40.6109   16.3092  -40.9093   17.2140  -40.9107   17.2244 -174.2168  -18.8084
  3.940  -39.9223   16.8887  -40.8498   16.6891  -40.7189   16.6602  -39.5726   16.4953  -39.9032   17.4725  -39.9036   17.4837 -178.7349  -18.8741
  3.950  -38.8611   17.1399  -39.8601   16.9087  -39.7218   16.8816  -38.5380   16.6749  -38.9045   17.7293  -38.9038   17.7414 -184.0952  -18.9417
  3.960  -37.8004   17.3926  -38.8748   17.1237  -38.7287   17.0988  -37.5015   16.8494  -37.9080   17.9863  -37.9063   17.9993 -190.5068  -19.0117
  3.970  -36.7354   17.6498  -37.8887   17.3360  -37.7346   17.3139  -36.4576   17.0210  -36.9090   18.2462  -36.9062   18.2601 -198.2064  -19.0846
  3.980  -35.6613   17.9150  -36.8969   17.5482  -36.7346   17.5292  -35.4011   17.1924  -35.9029   18.5124  -35.8990   18.5273 -207.4579  -19.1608
  3.990  -34.5741   18.1925  -35.8949   17.7632  -35.7241   17.7480  -34.3270   17.3670  -34.8858   18.7889  -34.8808   18.8049 -218.5510  -19.2411
  4.000  -33.4700   18.4874  -34.8783   17.9847  -34.6987   17.9738  -33.2305   17.5490  -33.8540   19.0804  -33.8479   19.0975 -231.7963  -19.3263
  4.010  -32.3462   18.8051  -33.8429   18.2168  -33.6542   18.2107  -32.1072   17.7427  -32.8044   19.3920  -32.7973   19.4102 -247.5194  -19.4173
  4.020  -31.2001   19.1517  -32.7848   18.4639  -32.5867   18.4632  -30.9527   17.9532  -31.7344   19.7291  -31.7262   19.7485 -266.0508  -19.5151
  4.030  -30.0302   19.5336  -31.7000   18.7309  -31.4921   18.7362  -29.7628   18.1859  -30.6418   20.0979  -30.6327   20.1184 -287.7124  -19.6208
  4.040  -28.8356   19.9571  -30.5844   19.0233  -30.3664   19.0352  -28.5335   18.4469  -29.5250   20.5044  -29.5149   20.5259 -312.8003  -19.7357
  4.050  -27.6161   20.4287  -29.4340   19.3470  -29.2054   19.3663  -27.2606   18.7426  -28.3827   20.9550  -28.3717   20.9775 -341.5636  -19.8613
  4.060  -26.3723   20.9545  -28.2443   19.7091  -28.0045   19.7365  -25.9400   19.0804  -27.2139   21.4564  -27.2020   21.4795 -374.1798  -19.9988
  4.070  -25.1049   21.5396  -27.0106   20.1174  -26.7588   20.1539  -24.5673   19.4683  -26.0178   22.0148  -26.0047   22.0382 -410.7280  -20.1497
  4.080  -23.8144   22.1881  -25.7277   20.5816  -25.4631   20.6281  -23.1382   19.9156  -24.7927   22.6366  -24.7784   22.6598 -451.1609  -20.3155
  4.090  -22.4993   22.9024  -24.3900   21.1131  -24.1117   21.1710  -21.6479   20.4325  -23.5362   23.3283  -23.5201   23.3505 -495.2781  -20.4975
  4.100  -21.1548   23.6842  -22.9919   21.7264  -22.6985   21.7972  -20.0913   21.0313  -22.2431   24.0968  -22.2242   24.1174 -542.7028  -20.6970
  4.110  -19.7701   24.5362  -21.5278   22.4391  -21.2178   22.5248  -18.4632   21.7260  -20.9048   24.9520  -20.8815   24.9702 -592.8646  -20.9148
  4.120  -18.3272   25.4662  -19.9932   23.2734  -19.6652   23.3766  -16.7580   22.5333  -19.5085   25.9091  -19.4785   25.9245 -644.9928  -21.1519
  4.130  -16.8017   26.4928  -18.3860   24.2569  -18.0379   24.3811  -14.9703   23.4733  -18.0388   26.9935  -17.9992   27.0067 -698.1236  -21.4084
  4.140  -15.1676   27.6506  -16.7076   25.4231  -16.3376   25.5727  -13.0944   24.5701  -16.4823   28.2446  -16.4296   28.2572 -751.1257  -21.6845
  4.150  -13.4049   28.9929  -14.9658   26.8120  -14.5722   26.9928  -11.1258   25.8531  -14.8340   29.7173  -14.7650   29.7326 -802.7475  -21.9795
  4.160  -11.5080   30.5897  -13.1772   28.4699  -12.7589   28.6895   -9.0610   27.3583  -13.1056   31.4804  -13.0175   31.5032 -851.6883  -22.2925
  4.170   -9.4908   32.5226  -11.3710   30.4485  -10.9279   30.7165   -6.8992   29.1301  -11.3308   33.6113  -11.2225   33.6480 -896.6916  -22.6220
  4.180   -7.3887   34.8802   -9.5922   32.8026   -9.1265   33.1308   -4.6440   31.2232   -9.5699   36.1907   -9.4420   36.2484 -936.6532  -22.9662
  4.190   -5.2604   37.7566   -7.9061   35.5864   -7.4229   35.9885   -2.3063   33.7055   -7.9122   39.2965   -7.7680   39.3830 -970.7326  -23.3229
  4.200   -3.1920   41.2512   -6.4006   38.8479   -5.9092   39.3391    0.0912   36.6609   -6.4807   42.9986   -6.3256   43.1208 -998.4499  -23.6899
  4.210   -1.3070   45.4679   -5.1888   42.6211   -4.7040   43.2176    2.5067   40.1927   -5.4373   47.3494   -5.2795   47.5134 *********  -24.0646
  4.220    0.2183   50.5084   -4.4077   46.9176   -3.9517   47.6349    4.8682   44.4262   -4.9891   52.3701   -4.8391   52.5800 *********  -24.4450
  4.230    1.1357   56.4544   -4.2159   51.7161   -3.8192   52.5665    7.0566   49.5093   -5.3922   58.0277   -5.2626   58.2847 *********  -24.8290
  4.240    1.1072   63.3313   -4.7857   56.9530   -4.4885   57.9418    8.8810   55.6070   -6.9462   64.2009   -6.8510   64.5021 *********  -25.2151
  4.250   -0.2970   71.0491   -6.2938   62.5137   -6.1454   63.6345   10.0441   62.8832   -9.9685   70.6356   -9.9216   70.9730 *********  -25.6023
  4.260   -3.5634   79.3225   -8.9086   68.2283   -8.9640   69.4558   10.1000   71.4566  -14.7325   76.9011  -14.7457   77.2613 *********  -25.9896
  4.270   -9.1355   87.5978  -12.7803   73.8666  -13.0935   75.1507    8.4189   81.3122  -21.3579   82.3777  -21.4380   82.7419 *********  -26.3767
  4.280  -17.2464   95.0423  -18.0305   79.1262  -18.6415   80.3882    4.1932   92.1495  -29.6713   86.3245  -29.8168   86.6716 *********  -26.7631
  4.290  -27.7377  100.6568  -24.7255   83.6064  -25.6430   84.7424   -3.4355  103.1786  -39.1095   88.0658  -39.3103   88.3765 *********  -27.1485
  4.300  -39.9692  103.5069  -32.8010   86.7840  -33.9851   87.6807  -15.0382  112.9654  -48.7796   87.2464  -49.0183   87.5079 *********  -27.5321
  4.310  -52.8818  102.9802  -41.9294   88.0596  -43.2847   88.6242  -30.3612  119.5661  -57.7081   84.0008  -57.9650   84.2090 *********  -27.9128
  4.320  -65.1893   98.9813  -51.4153   86.9528  -52.8072   87.1460  -47.9080  121.1780  -65.1506   78.8970  -65.4080   79.0563 *********  -28.2888
  4.330  -75.6665   92.0203  -60.2941   83.3901  -61.5870   83.2425  -65.1891  117.0954  -70.7629   72.6962  -71.0087   72.8162 *********  -28.6579
  4.340  -83.4876   83.1114  -67.6731   77.8405  -68.7709   77.4378  -79.7429  108.1927  -74.5701   66.1030  -74.7980   66.1951 -977.6033  -29.0171
  4.350  -88.4368   73.4453  -73.0705   71.1294  -73.9343   70.5761  -90.1657   96.4256  -76.8211   59.6306  -77.0301   59.7051 -942.2552  -29.3634
  4.360  -90.8341   64.0183  -76.4874   64.0882  -77.1256   63.4756  -96.3554   83.8360  -77.8443   53.5853  -78.0364   53.6496 -897.7202  -29.6933
  4.370  -91.2709   55.4445  -78.2380   57.3167  -78.6852   56.7082  -99.0504   71.8742  -77.9568   48.1111  -78.1350   48.1702 -844.2167  -30.0036
  4.380  -90.3610   47.9808  -78.7367   51.1393  -79.0348   50.5715  -99.2445   61.2787  -77.4238   43.2469  -77.5913   43.3035 -782.6732  -30.2912
  4.390  -88.6096   41.6471  -78.3640   45.6737  -78.5519   45.1633  -97.8293   52.2667  -76.4512   38.9718  -76.6106   39.0275 -714.6621  -30.5538
  4.400  -86.3830   36.3431  -77.4185   40.9168  -77.5279   40.4679  -95.4725   44.7681  -75.1912   35.2365  -75.3446   35.2919 -642.2551  -30.7898
  4.410  -83.9260   31.9246  -76.1150   36.8083  -76.1700   36.4185  -92.6269   38.5926  -73.7534   31.9807  -73.9024   32.0360 -567.8189  -30.9985
  4.420  -81.3939   28.2445  -74.6015   33.2682  -74.6196   32.9318  -89.5796   33.5220  -72.2152   29.1435  -72.3608   29.1989 -493.7849  -31.1800
  4.430  -78.8806   25.1710  -72.9768   30.2156  -72.9705   29.9257  -86.5042   29.3529  -70.6300   26.6682  -70.7731   26.7234 -422.4240  -31.3352
  4.440  -76.4402   22.5924  -71.3060   27.5764  -71.2840   27.3265  -83.5001   25.9110  -69.0344   24.5037  -69.1756   24.5589 -355.6587  -31.4659
  4.450  -74.1013   20.4171  -69.6311   25.2866  -69.5994   25.0705  -80.6208   23.0539  -67.4531   22.6060  -67.5927   22.6610 -294.9341  -31.5743
  4.460  -71.8771   18.5711  -67.9787   23.2918  -67.9413   23.1042  -77.8916   20.6673  -65.9020   20.9369  -66.0404   20.9918 -241.1585  -31.6629
  4.470  -69.7715   16.9950  -66.3653   21.5466  -66.3249   21.3828  -75.3209   18.6606  -64.3912   19.4640  -64.5286   19.5188 -194.7117  -31.7345
  4.480  -67.7825   15.6413  -64.8005   20.0132  -64.7588   19.8693  -72.9076   16.9620  -62.9267   18.1599  -63.0633   18.2146 -155.5101  -31.7916
  4.490  -65.9054   14.4718  -63.2893   18.6602  -63.2476   18.5329  -70.6453   15.5150  -61.5115   17.0012  -61.6476   17.0560 -123.1074  -31.8369
  4.500  -64.1337   13.4558  -61.8340   17.4615  -61.7928   17.3481  -68.5248   14.2745  -60.1469   15.9685  -60.2825   16.0233  -96.8124  -31.8725
  4.510  -62.4603   12.5686  -60.4347   16.3954  -60.3945   16.2936  -66.5358   13.2048  -58.8325   15.0449  -58.9679   15.0998  -75.8030  -31.9003
  4.520  -60.8780   11.7900  -59.0905   15.4437  -59.0514   15.3515  -64.6680   12.2771  -57.5674   14.2163  -57.7026   14.2715  -59.2239  -31.9221
  4.530  -59.3796   11.1035  -57.7995   14.5912  -57.7616   14.5070  -62.9112   11.4684  -56.3499   13.4708  -56.4851   13.5263  -46.2600  -31.9391
  4.540  -57.9586   10.4957  -56.5596   13.8249  -56.5227   13.7474  -61.2558   10.7600  -55.1780   12.7981  -55.3133   12.8540  -36.1821  -31.9524
  4.550  -56.6086    9.9553  -55.3682   13.1341  -55.3322   13.0622  -59.6930   10.1365  -54.0496   12.1895  -54.1852   12.2459  -28.3706  -31.9628
  4.560  -55.3240    9.4732  -54.2227   12.5095  -54.1875   12.4423  -58.2147    9.5855  -52.9625   11.6374  -53.0985   11.6944  -22.3195  -31.9710
  4.570  -54.0993    9.0416  -53.1206   11.9433  -53.0859   11.8799  -56.8134    9.0966  -51.9144   11.1355  -52.0509   11.1932  -17.6289  -31.9775
  4.580  -52.9298    8.6540  -52.0593   11.4287  -52.0249   11.3684  -55.4826    8.6613  -50.9030   10.6782  -51.0402   10.7366  -13.9897  -31.9826
  4.590  -51.8112    8.3050  -51.0363   10.9599  -51.0021   10.9022  -54.2162    8.2724  -49.9264   10.2606  -50.0643   10.3198  -11.1676  -31.9867
  4.600  -50.7393    7.9899  -50.0493   10.5320  -50.0150   10.4765  -53.0087    7.9240  -48.9823    9.8787  -49.1211    9.9388   -8.9859  -31.9900
  4.610  -49.7105    7.7048  -49.0960   10.1407  -49.0614   10.0868  -51.8553    7.6111  -48.0689    9.5287  -48.2087    9.5898   -7.3123  -31.9927
  4.620  -48.7216    7.4464  -48.1744    9.7823  -48.1393    9.7297  -50.7516    7.3294  -47.1842    9.2076  -47.3253    9.2698   -6.0474  -31.9949
  4.630  -47.7696    7.2118  -47.2824    9.4534  -47.2467    9.4018  -49.6934    7.0752  -46.3266    8.9126  -46.4690    8.9758   -5.1163  -31.9968
  4.640  -46.8516    6.9986  -46.4183    9.1513  -46.3817    9.1005  -48.6773    6.8456  -45.4944    8.6412  -45.6382    8.7057   -4.4623  -31.9985
  4.650  -45.9653    6.8045  -45.5802    8.8734  -45.5426    8.8231  -47.7000    6.6378  -44.6861    8.3913  -44.8315    8.4571   -4.0430  -31.9999
  4.660  -45.1083    6.6278  -44.7666    8.6177  -44.7278    8.5677  -46.7585    6.4496  -43.9001    8.1611  -44.0473    8.2283   -3.8270  -32.0013
  4.670  -44.2786    6.4669  -43.9760    8.3821  -43.9357    8.3322  -45.8500    6.2791  -43.1352    7.9490  -43.2843    8.0176   -3.7918  -32.0027
  4.680  -43.4742    6.3204  -43.2070    8.1651  -43.1651    8.1151  -44.9723    6.1245  -42.3901    7.7534  -42.5412    7.8235   -3.9223  -32.0042
  4.690  -42.6934    6.1870  -42.4581    7.9650  -42.4145    7.9148  -44.1229    5.9845  -41.6636    7.5731  -41.8169    7.6447   -4.2100  -32.0057
  4.700  -41.9346    6.0657  -41.7283    7.7806  -41.6827    7.7301  -43.3000    5.8577  -40.9546    7.4069  -41.1102    7.4802   -4.6516  -32.0074
  4.710  -41.1963    5.9556  -41.0163    7.6108  -40.9686    7.5599  -42.5016    5.7431  -40.2619    7.2539  -40.4200    7.3289   -5.2487  -32.0094
  4.720  -40.4771    5.8559  -40.3211    7.4545  -40.2711    7.4030  -41.7259    5.6397  -39.5847    7.1131  -39.7455    7.1900   -6.0072  -32.0116
  4.730  -39.7759    5.7659  -39.6416    7.3107  -39.5893    7.2586  -40.9715    5.5466  -38.9220    6.9837  -39.0857    7.0625   -6.9371  -32.0141
  4.740  -39.0913    5.6849  -38.9770    7.1788  -38.9221    7.1260  -40.2369    5.4632  -38.2730    6.8651  -38.4397    6.9459   -8.0515  -32.0171
  4.750  -38.4223    5.6124  -38.3263    7.0579  -38.2686    7.0043  -39.5207    5.3888  -37.6367    6.7566  -37.8067    6.8395   -9.3670  -32.0205
  4.760  -37.7680    5.5480  -37.6887    6.9474  -37.6280    6.8929  -38.8217    5.3228  -37.0125    6.6577  -37.1859    6.7427  -10.9034  -32.0245
  4.770  -37.1273    5.4913  -37.0634    6.8468  -36.9996    6.7914  -38.1387    5.2649  -36.3995    6.5679  -36.5767    6.6551  -12.6828  -32.0292
  4.780  -36.4994    5.4418  -36.4497    6.7556  -36.3826    6.6992  -37.4706    5.2145  -35.7972    6.4868  -35.9783    6.5763  -14.7305  -32.0346
  4.790  -35.8835    5.3994  -35.8468    6.6734  -35.7763    6.6159  -36.8166    5.1713  -35.2048    6.4139  -35.3900    6.5059  -17.0739  -32.0409
  4.800  -35.2788    5.3637  -35.2542    6.5997  -35.1799    6.5411  -36.1755    5.1351  -34.6218    6.3490  -34.8113    6.4435  -19.7428  -32.0481
  4.810  -34.6845    5.3346  -34.6711    6.5343  -34.5930    6.4745  -35.5466    5.1056  -34.0474    6.2918  -34.2416    6.3889  -22.7691  -32.0565
  4.820  -34.1000    5.3118  -34.0970    6.4768  -34.0148    6.4158  -34.9290    5.0825  -33.4812    6.2421  -33.6804    6.3419  -26.1866  -32.0661
  4.830  -33.5247    5.2952  -33.5313    6.4271  -33.4448    6.3648  -34.3220    5.0657  -32.9226    6.1996  -33.1270    6.3023  -30.0307  -32.0772
  4.840  -32.9579    5.2848  -32.9735    6.3849  -32.8825    6.3213  -33.7249    5.0551  -32.3712    6.1643  -32.5811    6.2699  -34.3382  -32.0898
  4.850  -32.3990    5.2804  -32.4231    6.3501  -32.3273    6.2851  -33.1369    5.0506  -31.8263    6.1359  -32.0421    6.2446  -39.1471  -32.1042
  4.860  -31.8476    5.2820  -31.8796    6.3226  -31.7787    6.2561  -32.5574    5.0521  -31.2875    6.1144  -31.5096    6.2262  -44.4959  -32.1205
  4.870  -31.3031    5.2897  -31.3425    6.3022  -31.2363    6.2342  -31.9857    5.0596  -30.7544    6.0997  -30.9831    6.2149  -50.4235  -32.1390
  4.880  -30.7650    5.3033  -30.8114    6.2889  -30.6996    6.2194  -31.4214    5.0731  -30.2266    6.0919  -30.4623    6.2105  -56.9689  -32.1600
  4.890  -30.2329    5.3230  -30.2859    6.2827  -30.1682    6.2116  -30.8639    5.0925  -29.7035    6.0908  -29.9467    6.2130  -64.1702  -32.1836
  4.900  -29.7064    5.3488  -29.7656    6.2836  -29.6417    6.2108  -30.3126    5.1181  -29.1849    6.0965  -29.4360    6.2224  -72.0647  -32.2101
  4.910  -29.1849    5.3808  -29.2500    6.2916  -29.1196    6.2172  -29.7670    5.1497  -28.6703    6.1092  -28.9298    6.2389  -80.6882  -32.2397
  4.920  -28.6682    5.4192  -28.7389    6.3068  -28.6015    6.2307  -29.2267    5.1877  -28.1593    6.1288  -28.4278    6.2626  -90.0745  -32.2728
  4.930  -28.1559    5.4640  -28.2319    6.3293  -28.0872    6.2514  -28.6912    5.2320  -27.6516    6.1555  -27.9296    6.2935 -100.2550  -32.3096
  4.940  -27.6475    5.5155  -27.7287    6.3593  -27.5762    6.2795  -28.1601    5.2829  -27.1468    6.1894  -27.4350    6.3318 -111.2580  -32.3505
  4.950  -27.1429    5.5738  -27.2289    6.3967  -27.0682    6.3151  -27.6330    5.3405  -26.6446    6.2307  -26.9437    6.3777 -123.1091  -32.3958
  4.960  -26.6416    5.6392  -26.7323    6.4420  -26.5630    6.3583  -27.1094    5.4051  -26.1447    6.2797  -26.4554    6.4314 -135.8302  -32.4457
  4.970  -26.1435    5.7120  -26.2387    6.4951  -26.0601    6.4096  -26.5890    5.4770  -25.6468    6.3365  -25.9699    6.4931 -149.4396  -32.5006
  4.980  -25.6482    5.7923  -25.7478    6.5565  -25.5593    6.4689  -26.0715    5.5563  -25.1505    6.4015  -25.4869    6.5632 -163.9523  -32.5609
  4.990  -25.1556    5.8805  -25.2593    6.6264  -25.0605    6.5367  -25.5565    5.6435  -24.6556    6.4748  -25.0063    6.6420 -179.3798  -32.6268
  5.000  -24.6654    5.9769  -24.7732    6.7050  -24.5632    6.6132  -25.0437    5.7389  -24.1618    6.5570  -24.5279    6.7297 -195.7306  -32.6987
  5.010  -24.1775    6.0820  -24.2892    6.7927  -24.0673    6.6987  -24.5329    5.8428  -23.6689    6.6482  -24.0516    6.8267 -213.0108  -32.7770
  5.020  -23.6917    6.1960  -23.8072    6.8899  -23.5726    6.7937  -24.0237    5.9556  -23.1766    6.7490  -23.5773    6.9336 -231.2243  -32.8620
  5.030  -23.2079    6.3193  -23.3272    6.9969  -23.0789    6.8985  -23.5160    6.0778  -22.6849    6.8598  -23.1048    7.0506 -250.3741  -32.9540
  5.040  -22.7262    6.4524  -22.8490    7.1142  -22.5861    7.0134  -23.0095    6.2099  -22.1933    6.9810  -22.6343    7.1783 -270.4628  -33.0534
  5.050  -22.2464    6.5957  -22.3728    7.2421  -22.0941    7.1390  -22.5041    6.3523  -21.7019    7.1131  -22.1656    7.3172 -291.4929  -33.1605
  5.060  -21.7686    6.7496  -21.8984    7.3810  -21.6027    7.2757  -21.9996    6.5056  -21.2105    7.2568  -21.6990    7.4678 -313.4679  -33.2757
  5.070  -21.2929    6.9145  -21.4261    7.5315  -21.1120    7.4239  -21.4958    6.6703  -20.7190    7.4125  -21.2345    7.6306 -336.3920  -33.3993
  5.080  -20.8194    7.0910  -20.9559    7.6940  -20.6218    7.5841  -20.9927    6.8471  -20.2272    7.5809  -20.7724    7.8062 -360.2696  -33.5317
  5.090  -20.3483    7.2793  -20.4881    7.8688  -20.1322    7.7568  -20.4902    7.0364  -19.7351    7.7626  -20.3130    7.9951 -385.1041  -33.6732
  5.100  -19.8797    7.4798  -20.0228    8.0564  -19.6432    7.9425  -19.9883    7.2390  -19.2427    7.9582  -19.8565    8.1980 -410.8962  -33.8242
  5.110  -19.4139    7.6929  -19.5604    8.2572  -19.1547    8.1415  -19.4869    7.4555  -18.7500    8.1685  -19.4035    8.4153 -437.6400  -33.9851
  5.120  -18.9511    7.9188  -19.1012    8.4713  -18.6668    8.3544  -18.9861    7.6864  -18.2569    8.3942  -18.9545    8.6476 -465.3195  -34.1561
  5.130  -18.4915    8.1576  -18.6455    8.6991  -18.1793    8.5815  -18.4857    7.9325  -17.7633    8.6359  -18.5101    8.8953 -493.9027  -34.3376
  5.140  -18.0354    8.4094  -18.1936    8.9407  -17.6923    8.8232  -17.9857    8.1943  -17.2693    8.8946  -18.0709    9.1587 -523.3356  -34.5299
  5.150  -17.5828    8.6742  -17.7457    9.1960  -17.2054    9.0798  -17.4859    8.4727  -16.7746    9.1709  -17.6376    9.4380 -553.5353  -34.7333
  5.160  -17.1336    8.9516  -17.3021    9.4650  -16.7182    9.3518  -16.9862    8.7682  -16.2791    9.4658  -17.2111    9.7335 -584.3831  -34.9481
  5.170  -16.6874    9.2415  -16.8625    9.7474  -16.2300    9.6395  -16.4861    9.0818  -15.7824    9.7803  -16.7921   10.0450 -615.7177  -35.1743
  5.180  -16.2434    9.5434  -16.4267   10.0428  -15.7399    9.9435  -15.9850    9.4143  -15.2841   10.1156  -16.3811   10.3722 -647.3302  -35.4122
  5.190  -15.8005    9.8571  -15.9940   10.3510  -15.2466   10.2648  -15.4821    9.7671  -14.7833   10.4734  -15.9788   10.7147 -678.9603  -35.6617
  5.200  -15.3566   10.1824  -15.5630   10.6717  -14.7482   10.6045  -14.9762   10.1417  -14.2793   10.8554  -15.5853   11.0717 -710.2959  -35.9228
  5.210  -14.9091   10.5198  -15.1318   11.0048  -14.2427   10.9646  -14.4659   10.5403  -13.7711   11.2644  -15.2004   11.4425 -740.9754  -36.1951
  5.220  -14.4544   10.8703  -14.6979   11.3511  -13.7275   11.3481  -13.9497   10.9661  -13.2576   11.7039  -14.8235   11.8260 -770.5943  -36.4783
  5.230  -13.9879   11.2365  -14.2577   11.7120  -13.2000   11.7594  -13.4259   11.4236  -12.7380   12.1784  -14.4529   12.2215 -798.7155  -36.7718
  5.240  -13.5046   11.6233  -13.8074   12.0907  -12.6580   12.2043  -12.8933   11.9186  -12.2123   12.6940  -14.0862   12.6284 -824.8833  -37.0749
  5.250  -12.9997   12.0382  -13.3428   12.4924  -12.1001   12.6909  -12.3518   12.4592  -11.6815   13.2582  -13.7199   13.0474 -848.6407  -37.3868
  5.260  -12.4697   12.4923  -12.8607   12.9250  -11.5271   13.2290  -11.8034   13.0552  -11.1491   13.8800  -13.3496   13.4804 -869.5490  -37.7063
  5.270  -11.9146   13.0002  -12.3599   13.3990  -10.9422   13.8298  -11.2539   13.7179  -10.6217   14.5689  -12.9704   13.9315 -887.2081  -38.0324
  5.280  -11.3400   13.5784  -11.8430   13.9269  -10.3529   14.5051  -10.7136   14.4583  -10.1097   15.3336  -12.5780   14.4078 -901.2767  -38.3636
  5.290  -10.7586   14.2430  -11.3173   14.5211   -9.7704   15.2652  -10.1978   15.2850   -9.6277   16.1804  -12.1696   14.9191 -911.4903  -38.6986
  5.300  -10.1898   15.0052  -10.7950   15.1921   -9.2097   16.1176   -9.7257   16.2011   -9.1924   17.1107  -11.7456   15.4778 -917.6754  -39.0358
  5.310   -9.6564   15.8685  -10.2912   15.9454   -8.6876   17.0655   -9.3173   17.2027   -8.8209   18.1202  -11.3107   16.0974 -919.7596  -39.3738
  5.320   -9.1804   16.8278   -9.8213   16.7818   -8.2208   18.1076   -8.9890   18.2794   -8.5271   19.2000  -10.8742   16.7908 -917.7760  -39.7111
  5.330   -8.7783   17.8725   -9.3985   17.6983   -7.8242   19.2393   -8.7517   19.4177   -8.3203   20.3386  -10.4492   17.5684 -911.8607  -40.0462
  5.340   -8.4604   18.9899   -9.0331   18.6902   -7.5102   20.4543   -8.6100   20.6042   -8.2054   21.5256  -10.0520   18.4377 -902.2460  -40.3778
  5.350   -8.2317   20.1696   -8.7330   19.7538   -7.2889   21.7466   -8.5652   21.8293   -8.1844   22.7531   -9.7002   19.4023 -889.2470  -40.7046
  5.360   -8.0958   21.4050   -8.5057   20.8867   -7.1700   23.1112   -8.6177   23.0873   -8.2598   24.0166   -9.4124   20.4626 -873.2446  -41.0255
  5.370   -8.0569   22.6925   -8.3598   22.0880   -7.1641   24.5441   -8.7702   24.3755   -8.4359   25.3140   -9.2071   21.6161 -854.6658  -41.3396
  5.380   -8.1221   24.0305   -8.3062   23.3571   -7.2844   26.0413   -9.0287   25.6925   -8.7202   26.6432   -9.1029   22.8575 -833.9623  -41.6460
  5.390   -8.3024   25.4170   -8.3586   24.6923   -7.5468   27.5971   -9.4028   27.0355   -9.1240   28.0012   -9.1190   24.1789 -811.5898  -41.9443
  5.400   -8.6119   26.8475   -8.5334   26.0896   -7.9701   29.2026   -9.9052   28.3991   -9.6610   29.3813   -9.2744   25.5694 -787.9887  -42.2339
  5.410   -9.0675   28.3138   -8.8494   27.5413   -8.5752   30.8438  -10.5507   29.7734  -10.3469   30.7725   -9.5885   27.0141 -763.5676  -42.5145
  5.420   -9.6875   29.8026   -9.3269   29.0349   -9.3840   32.4998  -11.3544   31.1431  -11.1974   32.1584  -10.0801   28.4940 -738.6910  -42.7859
  5.430  -10.4900   31.2941   -9.9863   30.5516  -10.4163   34.1424  -12.3298   32.4873  -12.2267   33.5162  -10.7661   29.9848 -713.6704  -43.0482
  5.440  -11.4909   32.7619  -10.8464   32.0662  -11.6883   35.7349  -13.4874   33.7792  -13.4454   34.8174  -11.6609   31.4565 -688.7602  -43.3013
  5.450  -12.7016   34.1730  -11.9221   33.5462  -13.2088   37.2330  -14.8323   34.9868  -14.8584   36.0279  -12.7736   32.8736 -664.1567  -43.5454
  5.460  -14.1264   35.4887  -13.2223   34.9528  -14.9763   38.5862  -16.3620   36.0741  -16.4624   37.1098  -14.1061   34.1957 -640.0012  -43.7806
  5.470  -15.7606   36.6661  -14.7469   36.2419  -16.9760   39.7409  -18.0653   37.0036  -18.2448   38.0231  -15.6511   35.3794 -616.3854  -44.0071
  5.480  -17.5881   37.6611  -16.4845   37.3664  -19.1781   40.6446  -19.9209   37.7383  -20.1824   38.7289  -17.3905   36.3805 -593.3583  -44.2252
  5.490  -19.5811   38.4317  -18.4114   38.2803  -21.5377   41.2506  -21.8976   38.2455  -22.2408   39.1930  -19.2939   37.1578 -570.9342  -44.4350
  5.500  -21.6998   38.9423  -20.4908   38.9421  -23.9965   41.5243  -23.9552   38.4996  -24.3765   39.3892  -21.3203   37.6771 -549.1015  -44.6368
  5.510  -23.8951   39.1671  -22.6744   39.3197  -26.4865   41.4466  -26.0470   38.4850  -26.5390   39.3021  -23.4190   37.9147 -527.8305  -44.8307
  5.520  -26.1115   39.0935  -24.9060   39.3939  -28.9365   41.0173  -28.1231   38.1983  -28.6744   38.9299  -25.5343   37.8603 -507.0807  -45.0171
  5.530  -28.2918   38.7232  -27.1253   39.1606  -31.2776   40.2554  -30.1338   37.6483  -30.7299   38.2841  -27.6094   37.5185 -486.8067  -45.1960
  5.540  -30.3815   38.0725  -29.2735   38.6317  -33.4498   39.1965  -32.0342   36.8554  -32.6580   37.3889  -29.5915   36.9081 -466.9640  -45.3676
  5.550  -32.3333   37.1699  -31.2980   37.8330  -35.4065   37.8891  -33.7864   35.8497  -34.4199   36.2786  -31.4358   36.0595 -447.5118  -45.5320
  5.560  -34.1098   36.0532  -33.1563   36.8015  -37.1166   36.3885  -35.3623   34.6676  -35.9874   34.9940  -33.1082   35.0116 -428.4162  -45.6895
  5.570  -35.6856   34.7657  -34.8180   35.5810  -38.5650   34.7523  -36.7438   33.3487  -37.3440   33.5789  -34.5867   33.8077 -409.6513  -45.8400
  5.580  -37.0468   33.3519  -36.2655   34.2181  -39.7508   33.0350  -37.9229   31.9328  -38.4841   32.0763  -35.8609   32.4912 -391.2003  -45.9838
  5.590  -38.1903   31.8550  -37.4930   32.7582  -40.6849   31.2851  -38.9003   30.4575  -39.4114   30.5261  -36.9306   31.1031 -373.0548  -46.1209
  5.600  -39.1218   30.3139  -38.5047   31.2428  -41.3861   29.5428  -39.6837   28.9560  -40.1371   28.9628  -37.8038   29.6797 -355.2149  -46.2514
  5.610  -39.8534   28.7620  -39.3121   29.7076  -41.8787   27.8400  -40.2861   27.4565  -40.6773   27.4152  -38.4941   28.2509 -337.6878  -46.3755
  5.620  -40.4018   27.2264  -39.9317   28.1818  -42.1891   26.1998  -40.7233   25.9819  -41.0511   25.9054  -39.0186   26.8408 -320.4865  -46.4933
  5.630  -40.7861   25.7283  -40.3829   26.6878  -42.3441   24.6379  -41.0132   24.5496  -41.2788   24.4500  -39.3961   25.4671 -303.6290  -46.6049
  5.640  -41.0260   24.2832  -40.6860   25.2421  -42.3693   23.1637  -41.1740   23.1724  -41.3806   23.0602  -39.6454   24.1425 -287.1369  -46.7104
  5.650  -41.1412   22.9018  -40.8609   23.8560  -42.2878   21.7813  -41.2236   21.8587  -41.3757   21.7428  -39.7847   22.8749 -271.0338  -46.8100
  5.660  -41.1502   21.5907  -40.9265   22.5365  -42.1202   20.4913  -41.1784   20.6139  -41.2818   20.5012  -39.8303   21.6691 -255.3445  -46.9038
  5.670  -41.0699   20.3533  -40.8998   21.2872  -41.8841   19.2914  -41.0539   19.4404  -41.1145   19.3362  -39.7971   20.5269 -240.0938  -46.9921
  5.680  -40.9154   19.1907  -40.7960   20.1091  -41.5943   18.1778  -40.8637   18.3386  -40.8875   18.2466  -39.6980   19.4484 -225.3059  -47.0749
  5.690  -40.7002   18.1018  -40.6281   19.0017  -41.2631   17.1453  -40.6198   17.3073  -40.6127   17.2297  -39.5438   18.4324 -211.0031  -47.1524
  5.700  -40.4358   17.0847  -40.4076   17.9632  -40.9004   16.1885  -40.3326   16.3442  -40.3000   16.2824  -39.3441   17.4767 -197.2058  -47.2249
  5.710  -40.1321   16.1362  -40.1442   16.9908  -40.5142   15.3017  -40.0110   15.4464  -39.9577   15.4006  -39.1069   16.5790 -183.9315  -47.2925
  5.720  -39.7975   15.2530  -39.8461   16.0816  -40.1110   14.4794  -39.6627   14.6104  -39.5928   14.5803  -38.8388   15.7364 -171.1948  -47.3554
  5.730  -39.4390   14.4311  -39.5204   15.2322  -39.6958   13.7165  -39.2941   13.8324  -39.2111   13.8174  -38.5458   14.9460 -159.0072  -47.4138
  5.740  -39.0626   13.6666  -39.1730   14.4392  -39.2727   13.0081  -38.9105   13.1088  -38.8172   13.1077  -38.2326   14.2049 -147.3767  -47.4680
  5.750  -38.6731   12.9556  -38.8089   13.6990  -38.8451   12.3498  -38.5162   12.4357  -38.4152   12.4473  -37.9035   13.5104 -136.3080  -47.5181
  5.760  -38.2747   12.2943  -38.4323   13.0083  -38.4155   11.7374  -38.1151   11.8095  -38.0082   11.8326  -37.5621   12.8595 -125.8026  -47.5643
  5.770  -37.8708   11.6791  -38.0469   12.3638  -37.9861   11.1673  -37.7100   11.2267  -37.5988   11.2601  -37.2114   12.2497 -115.8587  -47.6069
  5.780  -37.4639   11.1063  -37.6556   11.7623  -37.5585   10.6360  -37.3035   10.6840  -37.1891   10.7265  -36.8542   11.6784 -106.4714  -47.6460
  5.790  -37.0565   10.5729  -37.2610   11.2008  -37.1341   10.1406  -36.8975   10.1783  -36.7808   10.2287  -36.4926   11.1429  -97.6331  -47.6819
  5.800  -36.6503   10.0757  -36.8651   10.6765  -36.7140    9.6781  -36.4936    9.7066  -36.3754    9.7642  -36.1286   10.6411  -89.3338  -47.7147
  5.810  -36.2467    9.6118  -36.4697   10.1866  -36.2991    9.2459  -36.0931    9.2665  -35.9739    9.3301  -35.7638   10.1705  -81.5609  -47.7447
  5.820  -35.8470    9.1788  -36.0763    9.7286  -35.8901    8.8419  -35.6969    8.8552  -35.5771    8.9243  -35.3995    9.7292  -74.3001  -47.7720
  5.830  -35.4520    8.7742  -35.6859    9.3002  -35.4874    8.4637  -35.3060    8.4707  -35.1859    8.5444  -35.0369    9.3151  -67.5350  -47.7968
  5.840  -35.0624    8.3957  -35.2995    8.8992  -35.0915    8.1093  -34.9208    8.1108  -34.8006    8.1886  -34.6770    8.9262  -61.2482  -47.8193
  5.850  -34.6789    8.0414  -34.9178    8.5235  -34.7027    7.7771  -34.5418    7.7736  -34.4217    7.8550  -34.3204    8.5609  -55.4208  -47.8397
  5.860  -34.3017    7.7093  -34.5416    8.1713  -34.3212    7.4653  -34.1693    7.4573  -34.0496    7.5418  -33.9679    8.2175  -50.0330  -47.8581
  5.870  -33.9312    7.3978  -34.1711    7.8407  -33.9471    7.1724  -33.8036    7.1604  -33.6842    7.2476  -33.6199    7.8945  -45.0645  -47.8747
  5.880  -33.5676    7.1053  -33.8067    7.5303  -33.5804    6.8970  -33.4449    6.8814  -33.3259    6.9709  -33.2768    7.5904  -40.4943  -47.8895
  5.890  -33.2110    6.8303  -33.4487    7.2385  -33.2213    6.6378  -33.0931    6.6189  -32.9746    6.7105  -32.9390    7.3038  -36.3013  -47.9029
  5.900  -32.8615    6.5716  -33.0973    6.9639  -32.8696    6.3936  -32.7483    6.3718  -32.6304    6.4651  -32.6066    7.0336  -32.4643  -47.9148
  5.910  -32.5190    6.3279  -32.7525    6.7054  -32.5253    6.1634  -32.4106    6.1388  -32.2932    6.2337  -32.2797    6.7787  -28.9621  -47.9254
  5.920  -32.1835    6.0982  -32.4144    6.4616  -32.1883    5.9461  -32.0797    5.9190  -31.9629    6.0152  -31.9586    6.5379  -25.7740  -47.9349
  5.930  -31.8550    5.8814  -32.0830    6.2317  -31.8586    5.7409  -31.7558    5.7114  -31.6395    5.8088  -31.6433    6.3103  -22.8794  -47.9433
  5.940  -31.5333    5.6766  -31.7582    6.0145  -31.5359    5.5468  -31.4385    5.5152  -31.3229    5.6136  -31.3338    6.0951  -20.2582  -47.9508
  5.950  -31.2184    5.4830  -31.4400    5.8093  -31.2201    5.3632  -31.1279    5.3295  -31.0130    5.4288  -31.0300    5.8912  -17.8911  -47.9573
  5.960  -30.9102    5.2997  -31.1283    5.6151  -30.9111    5.1892  -30.8238    5.1537  -30.7095    5.2537  -30.7319    5.6981  -15.7593  -47.9631
  5.970  -30.6084    5.1261  -30.8230    5.4312  -30.6087    5.0243  -30.5261    4.9870  -30.4124    5.0876  -30.4396    5.5150  -13.8447  -47.9682
  5.980  -30.3130    4.9616  -30.5240    5.2569  -30.3128    4.8678  -30.2345    4.8288  -30.1215    4.9300  -30.1528    5.3411  -12.1299  -47.9727
  5.990  -30.0237    4.8054  -30.2312    5.0916  -30.0232    4.7193  -29.9490    4.6786  -29.8367    4.7803  -29.8716    5.1760  -10.5985  -47.9766
  6.000  -29.7405    4.6571  -29.9443    4.9346  -29.7396    4.5780  -29.6694    4.5359  -29.5577    4.6379  -29.5958    5.0191   -9.2348  -47.9800
  6.010  -29.4631    4.5161  -29.6634    4.7855  -29.4620    4.4437  -29.3955    4.4002  -29.2845    4.5025  -29.3254    4.8698   -8.0239  -47.9829
  6.020  -29.1914    4.3820  -29.3881    4.6437  -29.1902    4.3158  -29.1272    4.2709  -29.0169    4.3735  -29.0601    4.7276   -6.9520  -47.9855
  6.030  -28.9253    4.2543  -29.1185    4.5087  -28.9239    4.1940  -28.8643    4.1478  -28.7547    4.2506  -28.7999    4.5922   -6.0060  -47.9877
  6.040  -28.6646    4.1326  -28.8543    4.3801  -28.6631    4.0778  -28.6067    4.0305  -28.4977    4.1333  -28.5447    4.4630   -5.1735  -47.9896
  6.050  -28.4091    4.0166  -28.5954    4.2575  -28.4076    3.9670  -28.3542    3.9185  -28.2459    4.0214  -28.2944    4.3398   -4.4433  -47.9912
  6.060  -28.1587    3.9058  -28.3416    4.1406  -28.1572    3.8611  -28.1066    3.8116  -27.9991    3.9145  -28.0488    4.2221   -3.8047  -47.9926
  6.070  -27.9133    3.8001  -28.0928    4.0290  -27.9117    3.7600  -27.8639    3.7094  -27.7570    3.8123  -27.8078    4.1097   -3.2481  -47.9938
  6.080  -27.6726    3.6990  -27.8488    3.9223  -27.6711    3.6633  -27.6258    3.6117  -27.5197    3.7146  -27.5713    4.0022   -2.7644  -47.9948
  6.090  -27.4366    3.6024  -27.6096    3.8203  -27.4351    3.5707  -27.3923    3.5182  -27.2869    3.6210  -27.3392    3.8993   -2.3455  -47.9957
  6.100  -27.2051    3.5099  -27.3750    3.7228  -27.2037    3.4821  -27.1632    3.4287  -27.0585    3.5314  -27.1114    3.8008   -1.9839  -47.9964
  6.110  -26.9779    3.4213  -27.1447    3.6294  -26.9767    3.3972  -26.9384    3.3429  -26.8343    3.4455  -26.8877    3.7064   -1.6727  -47.9970
  6.120  -26.7550    3.3364  -26.9189    3.5399  -26.7539    3.3157  -26.7177    3.2607  -26.6143    3.3631  -26.6680    3.6159   -1.4059  -47.9975
  6.130  -26.5362    3.2550  -26.6971    3.4541  -26.5352    3.2376  -26.5010    3.1818  -26.3984    3.2840  -26.4523    3.5290   -1.1779  -47.9980
  6.140  -26.3215    3.1769  -26.4795    3.3718  -26.3206    3.1626  -26.2883    3.1061  -26.1863    3.2081  -26.2403    3.4457   -0.9837  -47.9983
  6.150  -26.1105    3.1020  -26.2658    3.2928  -26.1098    3.0905  -26.0793    3.0334  -25.9780    3.1351  -26.0321    3.3657   -0.8188  -47.9986
  6.160  -25.9034    3.0299  -26.0559    3.2170  -25.9028    3.0213  -25.8740    2.9635  -25.7734    3.0650  -25.8275    3.2887   -0.6793  -47.9989
  6.170  -25.6999    2.9607  -25.8498    3.1441  -25.6995    2.9547  -25.6723    2.8963  -25.5724    2.9975  -25.6264    3.2148   -0.5618  -47.9991
  6.180  -25.4999    2.8941  -25.6473    3.0740  -25.4997    2.8905  -25.4740    2.8316  -25.3749    2.9325  -25.4287    3.1436   -0.4630  -47.9993
  6.190  -25.3034    2.8300  -25.4483    3.0065  -25.3034    2.8288  -25.2792    2.7693  -25.1807    2.8700  -25.2344    3.0751   -0.3804  -47.9994
  6.200  -25.1103    2.7683  -25.2527    2.9416  -25.1104    2.7694  -25.0876    2.7094  -24.9898    2.8097  -25.0432    3.0091   -0.3114  -47.9995
  6.210  -24.9204    2.7089  -25.0604    2.8790  -24.9206    2.7120  -24.8992    2.6516  -24.8021    2.7516  -24.8552    2.9455   -0.2541  -47.9996
  6.220  -24.7336    2.6516  -24.8713    2.8187  -24.7340    2.6568  -24.7138    2.5959  -24.6174    2.6955  -24.6703    2.8842   -0.2067  -47.9997
  6.230  -24.5499    2.5964  -24.6854    2.7606  -24.5505    2.6034  -24.5315    2.5421  -24.4358    2.6414  -24.4883    2.8250   -0.1675  -47.9998
  6.240  -24.3692    2.5431  -24.5024    2.7045  -24.3700    2.5519  -24.3521    2.4903  -24.2571    2.5892  -24.3093    2.7679   -0.1353  -47.9998
  6.250  -24.1914    2.4916  -24.3225    2.6504  -24.1924    2.5022  -24.1756    2.4402  -24.0812    2.5387  -24.1330    2.7128   -0.1089  -47.9998
  6.260  -24.0164    2.4420  -24.1454    2.5981  -24.0176    2.4542  -24.0018    2.3918  -23.9081    2.4900  -23.9595    2.6596   -0.0874  -47.9999
  6.270  -23.8442    2.3939  -23.9712    2.5477  -23.8455    2.4077  -23.8307    2.3450  -23.7377    2.4428  -23.7887    2.6081   -0.0698  -47.9999
  6.280  -23.6746    2.3475  -23.7996    2.4989  -23.6761    2.3628  -23.6623    2.2998  -23.5699    2.3972  -23.6205    2.5583   -0.0556  -47.9999
  6.290  -23.5076    2.3027  -23.6307    2.4517  -23.5093    2.3193  -23.4964    2.2561  -23.4047    2.3531  -23.4548    2.5102   -0.0442  -47.9999
  6.300  -23.3432    2.2593  -23.4644    2.4060  -23.3450    2.2772  -23.3330    2.2138  -23.2419    2.3104  -23.2916    2.4636   -0.0349  -48.0000
  6.310  -23.1812    2.2173  -23.3006    2.3618  -23.1832    2.2365  -23.1720    2.1728  -23.0816    2.2690  -23.1308    2.4185   -0.0276  -48.0000
  6.320  -23.0216    2.1766  -23.1392    2.3190  -23.0238    2.1970  -23.0133    2.1331  -22.9236    2.2289  -22.9723    2.3748   -0.0216  -48.0000
  6.330  -22.8643    2.1372  -22.9802    2.2776  -22.8667    2.1587  -22.8570    2.0946  -22.7679    2.1900  -22.8162    2.3325   -0.0169  -48.0000
  6.340  -22.7094    2.0990  -22.8236    2.2374  -22.7119    2.1216  -22.7029    2.0574  -22.6144    2.1523  -22.6622    2.2915   -0.0132  -48.0000
  6.350  -22.5566    2.0620  -22.6692    2.1985  -22.5593    2.0856  -22.5509    2.0212  -22.4631    2.1157  -22.5105    2.2517   -0.0103  -48.0000
  6.360  -22.4060    2.0261  -22.5170    2.1607  -22.4089    2.0507  -22.4012    1.9862  -22.3140    2.0803  -22.3608    2.2131   -0.0080  -48.0000
  6.370  -22.2575    1.9912  -22.3669    2.1241  -22.2605    2.0168  -22.2534    1.9522  -22.1669    2.0458  -22.2132    2.1756   -0.0061  -48.0000
  6.380  -22.1111    1.9574  -22.2190    2.0885  -22.1143    1.9839  -22.1078    1.9191  -22.0218    2.0123  -22.0677    2.1393   -0.0047  -48.0000
  6.390  -21.9667    1.9246  -22.0731    2.0540  -21.9700    1.9519  -21.9641    1.8871  -21.8788    1.9798  -21.9241    2.1039   -0.0036  -48.0000
  6.400  -21.8243    1.8927  -21.9292    2.0205  -21.8277    1.9208  -21.8223    1.8559  -21.7376    1.9483  -21.7825    2.0696   -0.0028  -48.0000
  6.410  -21.6837    1.8618  -21.7873    1.9879  -21.6873    1.8906  -21.6824    1.8256  -21.5983    1.9175  -21.6427    2.0363   -0.0021  -48.0000
  6.420  -21.5451    1.8317  -21.6472    1.9562  -21.5488    1.8612  -21.5443    1.7962  -21.4609    1.8877  -21.5048    2.0039   -0.0016  -48.0000
  6.430  -21.4082    1.8024  -21.5090    1.9254  -21.4121    1.8326  -21.4081    1.7676  -21.3252    1.8586  -21.3687    1.9724   -0.0012  -48.0000
  6.440  -21.2731    1.7739  -21.3726    1.8955  -21.2771    1.8048  -21.2736    1.7398  -21.1913    1.8304  -21.2343    1.9417   -0.0009  -48.0000
  6.450  -21.1398    1.7463  -21.2380    1.8664  -21.1439    1.7778  -21.1408    1.7127  -21.0592    1.8028  -21.1017    1.9119   -0.0007  -48.0000
  6.460  -21.0082    1.7193  -21.1052    1.8380  -21.0125    1.7514  -21.0097    1.6863  -20.9286    1.7760  -20.9707    1.8828   -0.0005  -48.0000
  6.470  -20.8782    1.6931  -20.9740    1.8104  -20.8826    1.7257  -20.8803    1.6607  -20.7998    1.7499  -20.8414    1.8546   -0.0004  -48.0000
  6.480  -20.7499    1.6676  -20.8445    1.7835  -20.7544    1.7007  -20.7524    1.6357  -20.6725    1.7245  -20.7137    1.8270   -0.0003  -48.0000
  6.490  -20.6232    1.6427  -20.7166    1.7574  -20.6278    1.6763  -20.6262    1.6113  -20.5468    1.6997  -20.5875    1.8002   -0.0002  -48.0000
  6.500  -20.4980    1.6185  -20.5902    1.7319  -20.5027    1.6526  -20.5014    1.5876  -20.4226    1.6755  -20.4629    1.7741   -0.0002  -48.0000
  6.510  -20.3743    1.5949  -20.4655    1.7070  -20.3792    1.6294  -20.3782    1.5645  -20.3000    1.6520  -20.3398    1.7486   -0.0001  -48.0000
  6.520  -20.2521    1.5718  -20.3422    1.6828  -20.2571    1.6068  -20.2564    1.5419  -20.1787    1.6290  -20.2181    1.7237   -0.0001  -48.0000
  6.530  -20.1314    1.5494  -20.2204    1.6591  -20.1365    1.5848  -20.1361    1.5200  -20.0590    1.6066  -20.0979    1.6995   -0.0001  -48.0000
  6.540  -20.0121    1.5275  -20.1001    1.6361  -20.0173    1.5632  -20.0172    1.4985  -19.9406    1.5847  -19.9791    1.6758   -0.0000  -48.0000
  6.550  -19.8942    1.5062  -19.9812    1.6136  -19.8995    1.5422  -19.8997    1.4776  -19.8236    1.5633  -19.8617    1.6528   -0.0000  -48.0000
  6.560  -19.7777    1.4853  -19.8637    1.5916  -19.7831    1.5217  -19.7835    1.4572  -19.7080    1.5425  -19.7457    1.6303   -0.0000  -48.0000
  6.570  -19.6625    1.4650  -19.7475    1.5702  -19.6680    1.5017  -19.6686    1.4372  -19.5937    1.5221  -19.6309    1.6083   -0.0000  -48.0000
  6.580  -19.5486    1.4451  -19.6327    1.5492  -19.5542    1.4821  -19.5551    1.4178  -19.4806    1.5022  -19.5175    1.5868   -0.0000  -48.0000
  6.590  -19.4360    1.4257  -19.5192    1.5288  -19.4417    1.4630  -19.4428    1.3987  -19.3689    1.4828  -19.4053    1.5658   -0.0000  -48.0000
  6.600  -19.3247    1.4068  -19.4069    1.5088  -19.3304    1.4443  -19.3318    1.3802  -19.2584    1.4638  -19.2944    1.5453   -0.0000  -48.0000
  6.610  -19.2146    1.3883  -19.2959    1.4893  -19.2204    1.4261  -19.2220    1.3620  -19.1491    1.4452  -19.1847    1.5253   -0.0000  -48.0000
  6.620  -19.1057    1.3702  -19.1862    1.4702  -19.1116    1.4082  -19.1134    1.3443  -19.0410    1.4270  -19.0763    1.5057   -0.0000  -48.0000
  6.630  -18.9980    1.3525  -19.0776    1.4516  -19.0040    1.3907  -19.0059    1.3269  -18.9340    1.4092  -18.9690    1.4866   -0.0000  -48.0000
  6.640  -18.8915    1.3352  -18.9703    1.4333  -18.8976    1.3736  -18.8997    1.3100  -18.8283    1.3919  -18.8628    1.4679   -0.0000  -48.0000
  6.650  -18.7861    1.3183  -18.8641    1.4155  -18.7923    1.3569  -18.7945    1.2934  -18.7236    1.3749  -18.7578    1.4496   -0.0000  -48.0000
  6.660  -18.6818    1.3018  -18.7590    1.3980  -18.6881    1.3406  -18.6905    1.2772  -18.6201    1.3582  -18.6539    1.4317   -0.0000  -48.0000
  6.670  -18.5787    1.2856  -18.6551    1.3810  -18.5850    1.3245  -18.5875    1.2613  -18.5176    1.3419  -18.5511    1.4141   -0.0000  -48.0000
  6.680  -18.4766    1.2698  -18.5522    1.3643  -18.4830    1.3089  -18.4857    1.2458  -18.4162    1.3260  -18.4493    1.3970   -0.0000  -48.0000
  6.690  -18.3756    1.2543  -18.4505    1.3479  -18.3820    1.2935  -18.3849    1.2306  -18.3159    1.3104  -18.3486    1.3802   -0.0000  -48.0000
  6.700  -18.2756    1.2391  -18.3497    1.3319  -18.2821    1.2785  -18.2851    1.2157  -18.2166    1.2951  -18.2490    1.3638   -0.0000  -48.0000
  6.710  -18.1766    1.2243  -18.2501    1.3162  -18.1832    1.2637  -18.1863    1.2011  -18.1183    1.2801  -18.1503    1.3477   -0.0000  -48.0000
  6.720  -18.0787    1.2097  -18.1514    1.3008  -18.0853    1.2493  -18.0885    1.1868  -18.0210    1.2654  -18.0527    1.3319   -0.0000  -48.0000
  6.730  -17.9817    1.1955  -18.0537    1.2858  -17.9884    1.2351  -17.9917    1.1728  -17.9246    1.2510  -17.9560    1.3164   -0.0000  -48.0000
  6.740  -17.8857    1.1815  -17.9571    1.2710  -17.8924    1.2213  -17.8959    1.1591  -17.8292    1.2369  -17.8603    1.3013   -0.0000  -48.0000
  6.750  -17.7906    1.1679  -17.8614    1.2566  -17.7974    1.2077  -17.8010    1.1457  -17.7348    1.2231  -17.7655    1.2865   -0.0000  -48.0000
  6.760  -17.6965    1.1545  -17.7666    1.2424  -17.7034    1.1944  -17.7070    1.1326  -17.6413    1.2095  -17.6717    1.2719   -0.0000  -48.0000
  6.770  -17.6033    1.1413  -17.6728    1.2285  -17.6102    1.1813  -17.6140    1.1197  -17.5487    1.1962  -17.5788    1.2577   -0.0000  -48.0000
  6.780  -17.5110    1.1285  -17.5798    1.2149  -17.5180    1.1685  -17.5218    1.1070  -17.4569    1.1832  -17.4868    1.2437   -0.0000  -48.0000
  6.790  -17.4196    1.1158  -17.4878    1.2016  -17.4266    1.1559  -17.4305    1.0946  -17.3661    1.1704  -17.3956    1.2300   -0.0000  -48.0000
  6.800  -17.3291    1.1035  -17.3967    1.1885  -17.3361    1.1435  -17.3401    1.0824  -17.2761    1.1579  -17.3054    1.2165   -0.0000  -48.0000
  6.810  -17.2394    1.0913  -17.3064    1.1756  -17.2465    1.1314  -17.2506    1.0705  -17.1870    1.1455  -17.2159    1.2033   -0.0000  -48.0000
  6.820  -17.1506    1.0794  -17.2170    1.1630  -17.1577    1.1195  -17.1619    1.0588  -17.0987    1.1335  -17.1273    1.1904   -0.0000  -48.0000
  6.830  -17.0625    1.0677  -17.1284    1.1506  -17.0697    1.1079  -17.0740    1.0473  -17.0112    1.1216  -17.0396    1.1777   -0.0000  -48.0000
  6.840  -16.9754    1.0562  -17.0407    1.1385  -16.9826    1.0964  -16.9869    1.0360  -16.9246    1.1099  -16.9526    1.1652   -0.0000  -48.0000
  6.850  -16.8890    1.0450  -16.9538    1.1266  -16.8962    1.0851  -16.9006    1.0250  -16.8387    1.0985  -16.8665    1.1530   -0.0000  -48.0000
  6.860  -16.8034    1.0339  -16.8677    1.1148  -16.8107    1.0741  -16.8151    1.0141  -16.7536    1.0873  -16.7811    1.1410   -0.0000  -48.0000
  6.870  -16.7186    1.0231  -16.7823    1.1033  -16.7259    1.0632  -16.7304    1.0034  -16.6693    1.0762  -16.6966    1.1292   -0.0000  -48.0000
  6.880  -16.6345    1.0124  -16.6978    1.0921  -16.6419    1.0526  -16.6464    0.9930  -16.5857    1.0654  -16.6127    1.1176   -0.0000  -48.0000
  6.890  -16.5512    1.0020  -16.6140    1.0810  -16.5586    1.0421  -16.5632    0.9827  -16.5029    1.0547  -16.5297    1.1062   -0.0000  -48.0000
  6.900  -16.4687    0.9917  -16.5309    1.0701  -16.4761    1.0318  -16.4808    0.9726  -16.4208    1.0443  -16.4473    1.0950   -0.0000  -48.0000
  6.910  -16.3869    0.9816  -16.4486    1.0594  -16.3943    1.0217  -16.3990    0.9627  -16.3395    1.0340  -16.3657    1.0840   -0.0000  -48.0000
  6.920  -16.3057    0.9717  -16.3670    1.0489  -16.3132    1.0117  -16.3180    0.9529  -16.2588    1.0239  -16.2848    1.0732   -0.0000  -48.0000
  6.930  -16.2254    0.9619  -16.2862    1.0385  -16.2329    1.0020  -16.2377    0.9433  -16.1789    1.0140  -16.2046    1.0626   -0.0000  -48.0000
  6.940  -16.1457    0.9524  -16.2060    1.0284  -16.1532    0.9923  -16.1580    0.9339  -16.0997    1.0042  -16.1252    1.0522   -0.0000  -48.0000
  6.950  -16.0666    0.9430  -16.1266    1.0184  -16.0742    0.9829  -16.0791    0.9246  -16.0211    0.9946  -16.0463    1.0419   -0.0000  -48.0000
  6.960  -15.9883    0.9337  -16.0478    1.0085  -15.9959    0.9736  -16.0008    0.9155  -15.9432    0.9851  -15.9682    1.0318   -0.0000  -48.0000
  6.970  -15.9106    0.9246  -15.9697    0.9989  -15.9183    0.9644  -15.9232    0.9066  -15.8659    0.9758  -15.8907    1.0219   -0.0000  -48.0000
  6.980  -15.8336    0.9157  -15.8923    0.9894  -15.8413    0.9555  -15.8462    0.8978  -15.7894    0.9667  -15.8139    1.0122   -0.0000  -48.0000
  6.990  -15.7573    0.9069  -15.8155    0.9800  -15.7649    0.9466  -15.7699    0.8891  -15.7134    0.9577  -15.7377    1.0026   -0.0000  -48.0000
  7.000  -15.6816    0.8982  -15.7394    0.9709  -15.6892    0.9379  -15.6943    0.8806  -15.6381    0.9489  -15.6622    0.9932   -0.0000  -48.0000
  7.010  -15.6065    0.8897  -15.6639    0.9618  -15.6142    0.9293  -15.6192    0.8723  -15.5634    0.9402  -15.5873    0.9839   -0.0000  -48.0000
  7.020  -15.5320    0.8814  -15.5890    0.9529  -15.5397    0.9209  -15.5448    0.8640  -15.4893    0.9316  -15.5130    0.9748   -0.0000  -48.0000
  7.030  -15.4581    0.8731  -15.5148    0.9442  -15.4659    0.9126  -15.4710    0.8559  -15.4159    0.9232  -15.4393    0.9658   -0.0000  -48.0000
  7.040  -15.3849    0.8650  -15.4411    0.9355  -15.3926    0.9044  -15.3977    0.8479  -15.3430    0.9149  -15.3662    0.9569   -0.0000  -48.0000
  7.050  -15.3122    0.8571  -15.3681    0.9271  -15.3200    0.8964  -15.3251    0.8401  -15.2707    0.9067  -15.2937    0.9482   -0.0000  -48.0000
  7.060  -15.2401    0.8492  -15.2957    0.9187  -15.2479    0.8885  -15.2531    0.8324  -15.1990    0.8986  -15.2218    0.9397   -0.0000  -48.0000
  7.070  -15.1686    0.8415  -15.2238    0.9105  -15.1764    0.8807  -15.1816    0.8248  -15.1279    0.8907  -15.1505    0.9312   -0.0000  -48.0000
  7.080  -15.0977    0.8339  -15.1525    0.9024  -15.1055    0.8730  -15.1107    0.8173  -15.0573    0.8829  -15.0797    0.9229   -0.0000  -48.0000
  7.090  -15.0273    0.8264  -15.0818    0.8944  -15.0351    0.8654  -15.0403    0.8099  -14.9873    0.8752  -15.0095    0.9148   -0.0000  -48.0000
  7.100  -14.9575    0.8190  -15.0116    0.8866  -14.9653    0.8580  -14.9706    0.8027  -14.9178    0.8677  -14.9399    0.9067   -0.0000  -48.0000
  7.110  -14.8882    0.8118  -14.9420    0.8789  -14.8961    0.8506  -14.9013    0.7955  -14.8489    0.8602  -14.8708    0.8988   -0.0000  -48.0000
  7.120  -14.8195    0.8046  -14.8730    0.8713  -14.8273    0.8434  -14.8326    0.7885  -14.7805    0.8529  -14.8022    0.8910   -0.0000  -48.0000
  7.130  -14.7513    0.7976  -14.8045    0.8638  -14.7591    0.8363  -14.7644    0.7815  -14.7127    0.8456  -14.7341    0.8833   -0.0000  -48.0000
  7.140  -14.6836    0.7907  -14.7365    0.8564  -14.6915    0.8292  -14.6968    0.7747  -14.6453    0.8385  -14.6666    0.8757   -0.0000  -48.0000
  7.150  -14.6165    0.7838  -14.6690    0.8491  -14.6243    0.8223  -14.6296    0.7680  -14.5785    0.8315  -14.5996    0.8683   -0.0000  -48.0000
  7.160  -14.5498    0.7771  -14.6021    0.8419  -14.5577    0.8155  -14.5630    0.7614  -14.5122    0.8246  -14.5331    0.8609   -0.0000  -48.0000
  7.170  -14.4837    0.7705  -14.5356    0.8349  -14.4916    0.8088  -14.4969    0.7548  -14.4464    0.8177  -14.4671    0.8537   -0.0000  -48.0000
  7.180  -14.4180    0.7640  -14.4697    0.8279  -14.4259    0.8021  -14.4312    0.7484  -14.3810    0.8110  -14.4016    0.8465   -0.0000  -48.0000
  7.190  -14.3529    0.7575  -14.4043    0.8210  -14.3608    0.7956  -14.3661    0.7420  -14.3162    0.8044  -14.3366    0.8395   -0.0000  -48.0000
  7.200  -14.2882    0.7512  -14.3393    0.8143  -14.2961    0.7892  -14.3014    0.7358  -14.2519    0.7978  -14.2721    0.8325   -0.0000  -48.0000
  7.210  -14.2240    0.7449  -14.2749    0.8076  -14.2319    0.7828  -14.2373    0.7296  -14.1880    0.7914  -14.2081    0.8257   -0.0000  -48.0000
  7.220  -14.1603    0.7388  -14.2109    0.8010  -14.1682    0.7766  -14.1736    0.7236  -14.1246    0.7850  -14.1445    0.8190   -0.0000  -48.0000
  7.230  -14.0971    0.7327  -14.1474    0.7945  -14.1050    0.7704  -14.1103    0.7176  -14.0616    0.7788  -14.0814    0.8123   -0.0000  -48.0000
  7.240  -14.0343    0.7267  -14.0843    0.7881  -14.0422    0.7643  -14.0475    0.7117  -13.9991    0.7726  -14.0188    0.8058   -0.0000  -48.0000
  7.250  -13.9719    0.7208  -14.0218    0.7818  -13.9798    0.7583  -13.9852    0.7058  -13.9371    0.7665  -13.9566    0.7993   -0.0000  -48.0000
  7.260  -13.9101    0.7150  -13.9596    0.7756  -13.9180    0.7523  -13.9233    0.7001  -13.8755    0.7605  -13.8948    0.7929   -0.0000  -48.0000
  7.270  -13.8486    0.7092  -13.8979    0.7695  -13.8565    0.7465  -13.8619    0.6944  -13.8144    0.7546  -13.8335    0.7866   -0.0000  -48.0000
  7.280  -13.7876    0.7036  -13.8367    0.7634  -13.7955    0.7407  -13.8009    0.6889  -13.7537    0.7487  -13.7727    0.7804   -0.0000  -48.0000
  7.290  -13.7271    0.6980  -13.7759    0.7574  -13.7350    0.7350  -13.7403    0.6833  -13.6934    0.7429  -13.7122    0.7743   -0.0000  -48.0000
  7.300  -13.6669    0.6925  -13.7156    0.7515  -13.6748    0.7294  -13.6802    0.6779  -13.6335    0.7372  -13.6522    0.7683   -0.0000  -48.0000
  7.310  -13.6072    0.6871  -13.6556    0.7457  -13.6151    0.7239  -13.6205    0.6726  -13.5741    0.7316  -13.5926    0.7623   -0.0000  -48.0000
  7.320  -13.5479    0.6817  -13.5961    0.7400  -13.5558    0.7184  -13.5612    0.6673  -13.5151    0.7261  -13.5335    0.7565   -0.0000  -48.0000
  7.330  -13.4890    0.6764  -13.5370    0.7343  -13.4969    0.7130  -13.5023    0.6620  -13.4564    0.7206  -13.4747    0.7507   -0.0000  -48.0000
  7.340  -13.4305    0.6712  -13.4783    0.7288  -13.4384    0.7077  -13.4438    0.6569  -13.3982    0.7152  -13.4164    0.7450   -0.0000  -48.0000
  7.350  -13.3725    0.6661  -13.4200    0.7232  -13.3804    0.7024  -13.3858    0.6518  -13.3404    0.7099  -13.3584    0.7393   -0.0000  -48.0000
  7.360  -13.3148    0.6610  -13.3622    0.7178  -13.3227    0.6972  -13.3281    0.6468  -13.2830    0.7046  -13.3009    0.7338   -0.0000  -48.0000
  7.370  -13.2575    0.6560  -13.3047    0.7124  -13.2654    0.6921  -13.2708    0.6419  -13.2260    0.6994  -13.2437    0.7283   -0.0000  -48.0000
  7.380  -13.2006    0.6510  -13.2476    0.7071  -13.2085    0.6871  -13.2139    0.6370  -13.1694    0.6943  -13.1869    0.7228   -0.0000  -48.0000
  7.390  -13.1441    0.6461  -13.1909    0.7019  -13.1520    0.6821  -13.1574    0.6322  -13.1131    0.6892  -13.1305    0.7175   -0.0000  -48.0000
  7.400  -13.0880    0.6413  -13.1346    0.6967  -13.0958    0.6771  -13.1012    0.6274  -13.0572    0.6842  -13.0745    0.7122   -0.0000  -48.0000
  7.410  -13.0322    0.6366  -13.0787    0.6916  -13.0401    0.6723  -13.0455    0.6227  -13.0017    0.6793  -13.0189    0.7070   -0.0000  -48.0000
  7.420  -12.9768    0.6319  -13.0231    0.6866  -12.9847    0.6674  -12.9901    0.6181  -12.9466    0.6744  -12.9636    0.7018   -0.0000  -48.0000
  7.430  -12.9218    0.6272  -12.9679    0.6816  -12.9296    0.6627  -12.9351    0.6135  -12.8918    0.6696  -12.9087    0.6968   -0.0000  -48.0000
  7.440  -12.8672    0.6227  -12.9131    0.6767  -12.8750    0.6580  -12.8804    0.6090  -12.8374    0.6649  -12.8542    0.6917   -0.0000  -48.0000
  7.450  -12.8129    0.6182  -12.8586    0.6719  -12.8207    0.6534  -12.8261    0.6045  -12.7833    0.6602  -12.8000    0.6868   -0.0000  -48.0000
  7.460  -12.7589    0.6137  -12.8045    0.6671  -12.7667    0.6488  -12.7721    0.6001  -12.7296    0.6555  -12.7462    0.6819   -0.0000  -48.0000
  7.470  -12.7053    0.6093  -12.7508    0.6623  -12.7131    0.6443  -12.7185    0.5957  -12.6763    0.6510  -12.6927    0.6770   -0.0000  -48.0000
  7.480  -12.6521    0.6049  -12.6974    0.6577  -12.6599    0.6398  -12.6653    0.5914  -12.6233    0.6464  -12.6396    0.6723   -0.0000  -48.0000
  7.490  -12.5992    0.6006  -12.6444    0.6531  -12.6069    0.6354  -12.6124    0.5872  -12.5706    0.6420  -12.5868    0.6675   -0.0000  -48.0000
  7.500  -12.5466    0.5964  -12.5916    0.6485  -12.5544    0.6310  -12.5598    0.5830  -12.5183    0.6376  -12.5343    0.6629   -0.0000  -48.0000
  7.510  -12.4944    0.5922  -12.5393    0.6440  -12.5021    0.6267  -12.5075    0.5788  -12.4662    0.6332  -12.4822    0.6583   -0.0000  -48.0000
  7.520  -12.4425    0.5881  -12.4872    0.6395  -12.4502    0.6225  -12.4556    0.5747  -12.4146    0.6289  -12.4304    0.6537   -0.0000  -48.0000
  7.530  -12.3909    0.5840  -12.4355    0.6351  -12.3986    0.6183  -12.4040    0.5707  -12.3632    0.6246  -12.3790    0.6493   -0.0000  -48.0000
  7.540  -12.3396    0.5800  -12.3842    0.6308  -12.3473    0.6141  -12.3528    0.5667  -12.3122    0.6204  -12.3278    0.6448   -0.0000  -48.0000
  7.550  -12.2887    0.5760  -12.3331    0.6265  -12.2964    0.6100  -12.3018    0.5628  -12.2615    0.6163  -12.2770    0.6404   -0.0000  -48.0000
  7.560  -12.2381    0.5720  -12.2824    0.6223  -12.2458    0.6060  -12.2512    0.5589  -12.2111    0.6122  -12.2265    0.6361   -0.0000  -48.0000
  7.570  -12.1878    0.5681  -12.2320    0.6181  -12.1955    0.6020  -12.2009    0.5550  -12.1610    0.6081  -12.1763    0.6318   -0.0000  -48.0000
  7.580  -12.1378    0.5643  -12.1819    0.6139  -12.1454    0.5980  -12.1509    0.5512  -12.1112    0.6041  -12.1264    0.6276   -0.0000  -48.0000
  7.590  -12.0881    0.5605  -12.1321    0.6098  -12.0957    0.5941  -12.1012    0.5474  -12.0617    0.6002  -12.0769    0.6234   -0.0000  -48.0000
  7.600  -12.0387    0.5567  -12.0826    0.6058  -12.0463    0.5902  -12.0518    0.5437  -12.0126    0.5962  -12.0276    0.6193   -0.0000  -48.0000
  7.610  -11.9896    0.5530  -12.0334    0.6018  -11.9972    0.5864  -12.0027    0.5400  -11.9637    0.5924  -11.9786    0.6152   -0.0000  -48.0000
  7.620  -11.9408    0.5494  -11.9845    0.5978  -11.9484    0.5826  -11.9539    0.5364  -11.9151    0.5885  -11.9299    0.6112   -0.0000  -48.0000
  7.630  -11.8923    0.5458  -11.9359    0.5939  -11.8999    0.5789  -11.9054    0.5328  -11.8668    0.5848  -11.8815    0.6072   -0.0000  -48.0000
  7.640  -11.8441    0.5422  -11.8876    0.5901  -11.8517    0.5752  -11.8571    0.5293  -11.8188    0.5810  -11.8334    0.6033   -0.0000  -48.0000
  7.650  -11.7962    0.5386  -11.8396    0.5862  -11.8037    0.5715  -11.8092    0.5257  -11.7711    0.5773  -11.7856    0.5994   -0.0000  -48.0000
  7.660  -11.7485    0.5351  -11.7919    0.5825  -11.7561    0.5679  -11.7616    0.5223  -11.7237    0.5737  -11.7381    0.5955   -0.0000  -48.0000
  7.670  -11.7012    0.5317  -11.7445    0.5787  -11.7087    0.5643  -11.7142    0.5188  -11.6765    0.5701  -11.6908    0.5917   -0.0000  -48.0000
  7.680  -11.6541    0.5283  -11.6973    0.5750  -11.6616    0.5608  -11.6671    0.5155  -11.6296    0.5665  -11.6438    0.5880   -0.0000  -48.0000
  7.690  -11.6073    0.5249  -11.6505    0.5714  -11.6148    0.5573  -11.6203    0.5121  -11.5830    0.5630  -11.5971    0.5843   -0.0000  -48.0000
  7.700  -11.5607    0.5216  -11.6039    0.5678  -11.5682    0.5539  -11.5737    0.5088  -11.5367    0.5595  -11.5507    0.5806   -0.0000  -48.0000
  7.710  -11.5144    0.5183  -11.5575    0.5642  -11.5219    0.5505  -11.5274    0.5055  -11.4906    0.5561  -11.5046    0.5770   -0.0000  -48.0000
  7.720  -11.4684    0.5150  -11.5115    0.5607  -11.4759    0.5471  -11.4814    0.5023  -11.4448    0.5526  -11.4587    0.5734   -0.0000  -48.0000
  7.730  -11.4227    0.5118  -11.4657    0.5572  -11.4301    0.5438  -11.4357    0.4991  -11.3992    0.5493  -11.4130    0.5698   -0.0000  -48.0000
  7.740  -11.3772    0.5086  -11.4202    0.5538  -11.3846    0.5405  -11.3902    0.4959  -11.3540    0.5460  -11.3676    0.5663   -0.0000  -48.0000
  7.750  -11.3320    0.5055  -11.3749    0.5504  -11.3394    0.5372  -11.3449    0.4928  -11.3089    0.5427  -11.3225    0.5629   -0.0000  -48.0000
  7.760  -11.2870    0.5024  -11.3299    0.5470  -11.2944    0.5340  -11.2999    0.4897  -11.2641    0.5394  -11.2777    0.5594   -0.0000  -48.0000
  7.770  -11.2423    0.4993  -11.2851    0.5436  -11.2497    0.5308  -11.2552    0.4866  -11.2196    0.5362  -11.2330    0.5561   -0.0000  -48.0000
  7.780  -11.1978    0.4963  -11.2406    0.5403  -11.2052    0.5276  -11.2107    0.4836  -11.1753    0.5330  -11.1887    0.5527   -0.0000  -48.0000
  7.790  -11.1536    0.4933  -11.1964    0.5371  -11.1609    0.5245  -11.1665    0.4806  -11.1313    0.5299  -11.1446    0.5494   -0.0000  -48.0000
  7.800  -11.1096    0.4903  -11.1524    0.5339  -11.1169    0.5214  -11.1225    0.4776  -11.0875    0.5267  -11.1007    0.5461   -0.0000  -48.0000
  7.810  -11.0658    0.4874  -11.1086    0.5307  -11.0731    0.5184  -11.0787    0.4747  -11.0439    0.5237  -11.0570    0.5429   -0.0000  -48.0000
  7.820  -11.0223    0.4845  -11.0651    0.5275  -11.0296    0.5154  -11.0352    0.4718  -11.0006    0.5206  -11.0136    0.5397   -0.0000  -48.0000
  7.830  -10.9790    0.4816  -11.0218    0.5244  -10.9863    0.5124  -10.9919    0.4690  -10.9575    0.5176  -10.9705    0.5365   -0.0000  -48.0000
  7.840  -10.9360    0.4787  -10.9788    0.5213  -10.9433    0.5095  -10.9489    0.4661  -10.9147    0.5146  -10.9275    0.5334   -0.0000  -48.0000
  7.850  -10.8932    0.4759  -10.9360    0.5183  -10.9004    0.5065  -10.9061    0.4633  -10.8721    0.5117  -10.8848    0.5303   -0.0000  -48.0000
  7.860  -10.8506    0.4732  -10.8934    0.5152  -10.8578    0.5037  -10.8635    0.4606  -10.8297    0.5088  -10.8424    0.5273   -0.0000  -48.0000
  7.870  -10.8082    0.4704  -10.8511    0.5122  -10.8154    0.5008  -10.8211    0.4578  -10.7875    0.5059  -10.8001    0.5242   -0.0000  -48.0000
  7.880  -10.7661    0.4677  -10.8089    0.5093  -10.7733    0.4980  -10.7790    0.4551  -10.7455    0.5031  -10.7581    0.5212   -0.0000  -48.0000
  7.890  -10.7242    0.4651  -10.7670    0.5064  -10.7313    0.4952  -10.7370    0.4524  -10.7038    0.5003  -10.7163    0.5183   -0.0000  -48.0000
  7.900  -10.6825    0.4624  -10.7254    0.5035  -10.6896    0.4924  -10.6953    0.4498  -10.6623    0.4975  -10.6747    0.5154   -0.0000  -48.0000
  7.910  -10.6410    0.4598  -10.6839    0.5006  -10.6481    0.4897  -10.6538    0.4471  -10.6210    0.4947  -10.6333    0.5125   -0.0000  -48.0000
  7.920  -10.5997    0.4572  -10.6427    0.4978  -10.6068    0.4870  -10.6126    0.4446  -10.5799    0.4920  -10.5922    0.5096   -0.0000  -48.0000
  7.930  -10.5586    0.4546  -10.6017    0.4950  -10.5657    0.4843  -10.5715    0.4420  -10.5390    0.4893  -10.5512    0.5068   -0.0000  -48.0000
  7.940  -10.5178    0.4521  -10.5609    0.4922  -10.5249    0.4817  -10.5306    0.4395  -10.4984    0.4867  -10.5105    0.5040   -0.0000  -48.0000
  7.950  -10.4771    0.4496  -10.5203    0.4895  -10.4842    0.4791  -10.4900    0.4369  -10.4579    0.4841  -10.4699    0.5012   -0.0000  -48.0000
  7.960  -10.4367    0.4472  -10.4799    0.4868  -10.4437    0.4765  -10.4495    0.4345  -10.4176    0.4815  -10.4296    0.4985   -0.0000  -48.0000
  7.970  -10.3964    0.4447  -10.4397    0.4841  -10.4035    0.4740  -10.4093    0.4320  -10.3776    0.4789  -10.3895    0.4958   -0.0000  -48.0000
  7.980  -10.3564    0.4423  -10.3997    0.4814  -10.3634    0.4715  -10.3692    0.4296  -10.3377    0.4764  -10.3496    0.4932   -0.0000  -48.0000
  7.990  -10.3165    0.4399  -10.3600    0.4788  -10.3235    0.4690  -10.3294    0.4272  -10.2981    0.4739  -10.3098    0.4905   -0.0000  -48.0000
  8.000  -10.2769    0.4376  -10.3204    0.4762  -10.2838    0.4665  -10.2897    0.4248  -10.2586    0.4714  -10.2703    0.4879   -0.0000  -48.0000
  8.010  -10.2374    0.4352  -10.2810    0.4737  -10.2443    0.4641  -10.2503    0.4224  -10.2193    0.4689  -10.2309    0.4853   -0.0000  -48.0000
  8.020  -10.1981    0.4329  -10.2418    0.4711  -10.2050    0.4617  -10.2110    0.4201  -10.1802    0.4665  -10.1918    0.4828   -0.0000  -48.0000
  8.030  -10.1590    0.4307  -10.2028    0.4686  -10.1659    0.4593  -10.1719    0.4178  -10.1413    0.4641  -10.1528    0.4803   -0.0000  -48.0000
  8.040  -10.1201    0.4284  -10.1640    0.4661  -10.1270    0.4569  -10.1330    0.4155  -10.1026    0.4618  -10.1140    0.4778   -0.0000  -48.0000
  8.050  -10.0814    0.4262  -10.1254    0.4637  -10.0883    0.4546  -10.0943    0.4133  -10.0641    0.4594  -10.0754    0.4754   -0.0000  -48.0000
  8.060  -10.0429    0.4240  -10.0870    0.4613  -10.0497    0.4523  -10.0558    0.4111  -10.0257    0.4571  -10.0370    0.4729   -0.0000  -48.0000
  8.070  -10.0045    0.4218  -10.0488    0.4589  -10.0113    0.4500  -10.0174    0.4089   -9.9875    0.4548   -9.9988    0.4705   -0.0000  -48.0000
  8.080   -9.9663    0.4197  -10.0107    0.4565   -9.9731    0.4478   -9.9792    0.4067   -9.9495    0.4526   -9.9607    0.4682   -0.0000  -48.0000
  8.090   -9.9283    0.4176   -9.9728    0.4541   -9.9350    0.4456   -9.9412    0.4046   -9.9117    0.4503   -9.9228    0.4658   -0.0000  -48.0000
  8.100   -9.8904    0.4155   -9.9351    0.4518   -9.8972    0.4434   -9.9034    0.4024   -9.8740    0.4481   -9.8851    0.4635   -0.0000  -48.0000
  8.110   -9.8528    0.4135   -9.8976    0.4495   -9.8595    0.4412   -9.8657    0.4003   -9.8366    0.4460   -9.8476    0.4612   -0.0000  -48.0000
  8.120   -9.8152    0.4114   -9.8603    0.4473   -9.8219    0.4391   -9.8282    0.3982   -9.7992    0.4438   -9.8102    0.4590   -0.0000  -48.0000
  8.130   -9.7779    0.4094   -9.8231    0.4450   -9.7846    0.4370   -9.7909    0.3962   -9.7621    0.4417   -9.7730    0.4567   -0.0000  -48.0000
  8.140   -9.7407    0.4074   -9.7861    0.4428   -9.7474    0.4349   -9.7537    0.3942   -9.7251    0.4396   -9.7359    0.4545   -0.0000  -48.0000
  8.150   -9.7037    0.4055   -9.7493    0.4406   -9.7103    0.4328   -9.7167    0.3922   -9.6883    0.4376   -9.6991    0.4524   -0.0000  -48.0000
  8.160   -9.6668    0.4035   -9.7126    0.4384   -9.6734    0.4308   -9.6799    0.3902   -9.6516    0.4355   -9.6623    0.4502   -0.0000  -48.0000
  8.170   -9.6301    0.4016   -9.6761    0.4363   -9.6367    0.4288   -9.6432    0.3882   -9.6151    0.4335   -9.6258    0.4481   -0.0000  -48.0000
  8.180   -9.5936    0.3998   -9.6397    0.4342   -9.6001    0.4268   -9.6066    0.3863   -9.5788    0.4315   -9.5894    0.4460   -0.0000  -48.0000
  8.190   -9.5572    0.3979   -9.6036    0.4321   -9.5637    0.4248   -9.5702    0.3844   -9.5426    0.4296   -9.5531    0.4440   -0.0000  -48.0000
  8.200   -9.5209    0.3961   -9.5675    0.4300   -9.5274    0.4229   -9.5340    0.3825   -9.5065    0.4276   -9.5170    0.4419   -0.0000  -48.0000
  8.210   -9.4848    0.3943   -9.5317    0.4280   -9.4913    0.4210   -9.4979    0.3806   -9.4706    0.4257   -9.4810    0.4399   -0.0000  -48.0000
  8.220   -9.4488    0.3925   -9.4959    0.4260   -9.4553    0.4191   -9.4620    0.3787   -9.4348    0.4238   -9.4452    0.4380   -0.0000  -48.0000
  8.230   -9.4130    0.3907   -9.4604    0.4240   -9.4194    0.4172   -9.4262    0.3769   -9.3992    0.4220   -9.4096    0.4360   -0.0000  -48.0000
  8.240   -9.3773    0.3890   -9.4250    0.4220   -9.3837    0.4154   -9.3905    0.3751   -9.3637    0.4202   -9.3740    0.4341   -0.0000  -48.0000
  8.250   -9.3418    0.3873   -9.3897    0.4200   -9.3481    0.4136   -9.3550    0.3733   -9.3284    0.4184   -9.3386    0.4322   -0.0000  -48.0000
  8.260   -9.3064    0.3856   -9.3546    0.4181   -9.3127    0.4118   -9.3196    0.3716   -9.2932    0.4166   -9.3034    0.4303   -0.0000  -48.0000
  8.270   -9.2711    0.3840   -9.3196    0.4162   -9.2774    0.4101   -9.2844    0.3699   -9.2582    0.4148   -9.2683    0.4285   -0.0000  -48.0000
  8.280   -9.2359    0.3824   -9.2847    0.4144   -9.2422    0.4083   -9.2492    0.3681   -9.2232    0.4131   -9.2333    0.4267   -0.0000  -48.0000
  8.290   -9.2009    0.3808   -9.2500    0.4125   -9.2072    0.4066   -9.2142    0.3665   -9.1884    0.4114   -9.1985    0.4249   -0.0000  -48.0000
  8.300   -9.1660    0.3792   -9.2155    0.4107   -9.1722    0.4050   -9.1794    0.3648   -9.1537    0.4098   -9.1637    0.4231   -0.0000  -48.0000
  8.310   -9.1312    0.3777   -9.1810    0.4089   -9.1374    0.4033   -9.1446    0.3631   -9.1192    0.4081   -9.1291    0.4214   -0.0000  -48.0000
  8.320   -9.0966    0.3761   -9.1468    0.4071   -9.1028    0.4017   -9.1100    0.3615   -9.0848    0.4065   -9.0947    0.4197   -0.0000  -48.0000
  8.330   -9.0620    0.3747   -9.1126    0.4053   -9.0682    0.4001   -9.0755    0.3599   -9.0505    0.4049   -9.0603    0.4180   -0.0000  -48.0000
  8.340   -9.0276    0.3732   -9.0786    0.4036   -9.0338    0.3985   -9.0412    0.3583   -9.0163    0.4034   -9.0261    0.4164   -0.0000  -48.0000
  8.350   -8.9933    0.3718   -9.0446    0.4019   -8.9994    0.3970   -9.0069    0.3568   -8.9822    0.4019   -8.9920    0.4148   -0.0000  -48.0000
  8.360   -8.9591    0.3703   -9.0109    0.4002   -8.9652    0.3955   -8.9727    0.3553   -8.9483    0.4004   -8.9580    0.4132   -0.0000  -48.0000
  8.370   -8.9250    0.3690   -8.9772    0.3986   -8.9311    0.3940   -8.9387    0.3538   -8.9144    0.3989   -8.9241    0.4117   -0.0000  -48.0000
  8.380   -8.8910    0.3676   -8.9437    0.3969   -8.8971    0.3925   -8.9048    0.3523   -8.8807    0.3975   -8.8903    0.4101   -0.0000  -48.0000
  8.390   -8.8572    0.3663   -8.9102    0.3953   -8.8631    0.3911   -8.8709    0.3508   -8.8471    0.3960   -8.8566    0.4086   -0.0000  -48.0000
  8.400   -8.8234    0.3650   -8.8769    0.3938   -8.8293    0.3897   -8.8372    0.3494   -8.8135    0.3947   -8.8231    0.4072   -0.0000  -48.0000
  8.410   -8.7897    0.3637   -8.8437    0.3922   -8.7956    0.3883   -8.8036    0.3480   -8.7801    0.3933   -8.7896    0.4057   -0.0000  -48.0000
  8.420   -8.7561    0.3625   -8.8106    0.3907   -8.7620    0.3870   -8.7700    0.3466   -8.7468    0.3920   -8.7562    0.4043   -0.0000  -48.0000
  8.430   -8.7226    0.3613   -8.7777    0.3892   -8.7285    0.3857   -8.7366    0.3452   -8.7136    0.3907   -8.7229    0.4030   -0.0000  -48.0000
  8.440   -8.6892    0.3601   -8.7448    0.3877   -8.6950    0.3844   -8.7032    0.3439   -8.6804    0.3894   -8.6898    0.4016   -0.0000  -48.0000
  8.450   -8.6559    0.3590   -8.7120    0.3862   -8.6616    0.3831   -8.6700    0.3426   -8.6474    0.3882   -8.6567    0.4003   -0.0000  -48.0000
  8.460   -8.6226    0.3578   -8.6794    0.3848   -8.6284    0.3819   -8.6368    0.3413   -8.6144    0.3870   -8.6237    0.3991   -0.0000  -48.0000
  8.470   -8.5894    0.3568   -8.6468    0.3834   -8.5952    0.3807   -8.6037    0.3400   -8.5815    0.3859   -8.5907    0.3978   -0.0000  -48.0000
  8.480   -8.5564    0.3557   -8.6143    0.3820   -8.5620    0.3796   -8.5706    0.3388   -8.5487    0.3847   -8.5579    0.3966   -0.0000  -48.0000
  8.490   -8.5233    0.3547   -8.5820    0.3807   -8.5290    0.3785   -8.5377    0.3376   -8.5160    0.3836   -8.5251    0.3955   -0.0000  -48.0000
  8.500   -8.4904    0.3537   -8.5497    0.3794   -8.4960    0.3774   -8.5048    0.3364   -8.4834    0.3826   -8.4925    0.3943   -0.0000  -48.0000
  8.510   -8.4575    0.3528   -8.5175    0.3781   -8.4631    0.3763   -8.4720    0.3352   -8.4508    0.3816   -8.4598    0.3932   -0.0000  -48.0000
  8.520   -8.4247    0.3519   -8.4854    0.3768   -8.4302    0.3753   -8.4393    0.3341   -8.4183    0.3806   -8.4273    0.3922   -0.0000  -48.0000
  8.530   -8.3919    0.3510   -8.4533    0.3756   -8.3974    0.3743   -8.4066    0.3330   -8.3858    0.3796   -8.3948    0.3912   -0.0000  -48.0000
  8.540   -8.3592    0.3501   -8.4214    0.3743   -8.3646    0.3734   -8.3739    0.3319   -8.3535    0.3787   -8.3624    0.3902   -0.0000  -48.0000
  8.550   -8.3265    0.3493   -8.3895    0.3732   -8.3319    0.3725   -8.3414    0.3309   -8.3211    0.3778   -8.3300    0.3893   -0.0000  -48.0000
  8.560   -8.2939    0.3486   -8.3577    0.3720   -8.2993    0.3716   -8.3088    0.3299   -8.2889    0.3770   -8.2977    0.3884   -0.0000  -48.0000
  8.570   -8.2613    0.3479   -8.3260    0.3709   -8.2666    0.3708   -8.2763    0.3289   -8.2567    0.3762   -8.2655    0.3875   -0.0001  -48.0000
  8.580   -8.2288    0.3472   -8.2944    0.3698   -8.2340    0.3700   -8.2439    0.3279   -8.2245    0.3755   -8.2333    0.3867   -0.0001  -48.0000
  8.590   -8.1963    0.3466   -8.2628    0.3687   -8.2015    0.3692   -8.2115    0.3270   -8.1924    0.3748   -8.2011    0.3859   -0.0002  -48.0000
  8.600   -8.1638    0.3460   -8.2313    0.3677   -8.1690    0.3685   -8.1791    0.3261   -8.1603    0.3741   -8.1690    0.3852   -0.0003  -48.0000
  8.610   -8.1313    0.3455   -8.1998    0.3667   -8.1364    0.3679   -8.1468    0.3253   -8.1282    0.3735   -8.1369    0.3845   -0.0004  -48.0000
  8.620   -8.0989    0.3450   -8.1684    0.3658   -8.1040    0.3673   -8.1144    0.3245   -8.0962    0.3730   -8.1048    0.3839   -0.0006  -48.0000
  8.630   -8.0665    0.3445   -8.1371    0.3648   -8.0715    0.3667   -8.0821    0.3237   -8.0642    0.3725   -8.0728    0.3833   -0.0009  -48.0000
  8.640   -8.0340    0.3441   -8.1057    0.3640   -8.0390    0.3662   -8.0498    0.3229   -8.0322    0.3720   -8.0408    0.3828   -0.0013  -48.0000
  8.650   -8.0016    0.3438   -8.0745    0.3631   -8.0065    0.3658   -8.0175    0.3222   -8.0002    0.3716   -8.0088    0.3824   -0.0020  -48.0000
  8.660   -7.9692    0.3435   -8.0433    0.3623   -7.9741    0.3654   -7.9852    0.3216   -7.9683    0.3713   -7.9768    0.3820   -0.0029  -48.0000
  8.670   -7.9368    0.3433   -8.0121    0.3615   -7.9416    0.3650   -7.9529    0.3210   -7.9363    0.3710   -7.9448    0.3816   -0.0043  -48.0000
  8.680   -7.9043    0.3432   -7.9810    0.3608   -7.9091    0.3647   -7.9206    0.3204   -7.9044    0.3707   -7.9128    0.3813   -0.0062  -48.0000
  8.690   -7.8719    0.3431   -7.9498    0.3601   -7.8765    0.3645   -7.8883    0.3199   -7.8724    0.3706   -7.8808    0.3811   -0.0089  -48.0000
  8.700   -7.8394    0.3431   -7.9187    0.3594   -7.8440    0.3644   -7.8559    0.3194   -7.8404    0.3705   -7.8488    0.3810   -0.0128  -48.0000
  8.710   -7.8068    0.3431   -7.8877    0.3588   -7.8114    0.3643   -7.8235    0.3190   -7.8084    0.3705   -7.8168    0.3809   -0.0183  -48.0000
  8.720   -7.7743    0.3432   -7.8566    0.3582   -7.7787    0.3643   -7.7911    0.3186   -7.7764    0.3705   -7.7848    0.3809   -0.0259  -48.0000
  8.730   -7.7416    0.3434   -7.8256    0.3577   -7.7460    0.3643   -7.7586    0.3182   -7.7444    0.3706   -7.7527    0.3809   -0.0365  -48.0000
  8.740   -7.7089    0.3437   -7.7945    0.3573   -7.7132    0.3645   -7.7261    0.3180   -7.7123    0.3708   -7.7206    0.3811   -0.0511  -48.0001
  8.750   -7.6762    0.3441   -7.7635    0.3568   -7.6804    0.3647   -7.6935    0.3178   -7.6801    0.3711   -7.6884    0.3813   -0.0711  -48.0001
  8.760   -7.6434    0.3445   -7.7325    0.3565   -7.6475    0.3650   -7.6608    0.3176   -7.6480    0.3715   -7.6562    0.3816   -0.0986  -48.0001
  8.770   -7.6104    0.3451   -7.7014    0.3561   -7.6144    0.3654   -7.6281    0.3175   -7.6157    0.3720   -7.6239    0.3820   -0.1358  -48.0002
  8.780   -7.5774    0.3457   -7.6704    0.3559   -7.5813    0.3659   -7.5952    0.3175   -7.5834    0.3725   -7.5915    0.3825   -0.1862  -48.0002
  8.790   -7.5443    0.3464   -7.6393    0.3557   -7.5481    0.3665   -7.5623    0.3176   -7.5510    0.3732   -7.5591    0.3832   -0.2539  -48.0003
  8.800   -7.5110    0.3473   -7.6082    0.3555   -7.5147    0.3672   -7.5292    0.3177   -7.5185    0.3740   -7.5266    0.3839   -0.3444  -48.0005
  8.810   -7.4777    0.3483   -7.5770    0.3555   -7.4812    0.3680   -7.4960    0.3179   -7.4859    0.3749   -7.4940    0.3847   -0.4647  -48.0006
  8.820   -7.4441    0.3494   -7.5458    0.3555   -7.4476    0.3689   -7.4627    0.3182   -7.4532    0.3759   -7.4612    0.3857   -0.6239  -48.0009
  8.830   -7.4105    0.3506   -7.5146    0.3555   -7.4138    0.3700   -7.4292    0.3186   -7.4204    0.3770   -7.4284    0.3868   -0.8332  -48.0012
  8.840   -7.3766    0.3520   -7.4833    0.3557   -7.3798    0.3712   -7.3956    0.3191   -7.3874    0.3783   -7.3954    0.3880   -1.1070  -48.0016
  8.850   -7.3426    0.3535   -7.4520    0.3559   -7.3456    0.3725   -7.3618    0.3197   -7.3543    0.3797   -7.3623    0.3893   -1.4630  -48.0021
  8.860   -7.3084    0.3552   -7.4205    0.3562   -7.3112    0.3740   -7.3277    0.3204   -7.3210    0.3813   -7.3290    0.3909   -1.9232  -48.0028
  8.870   -7.2739    0.3571   -7.3890    0.3565   -7.2766    0.3757   -7.2935    0.3212   -7.2876    0.3830   -7.2955    0.3925   -2.5143  -48.0037
  8.880   -7.2392    0.3591   -7.3574    0.3570   -7.2418    0.3775   -7.2590    0.3221   -7.2540    0.3849   -7.2619    0.3944   -3.2689  -48.0049
  8.890   -7.2043    0.3614   -7.3257    0.3576   -7.2066    0.3795   -7.2243    0.3232   -7.2202    0.3870   -7.2280    0.3965   -4.2259  -48.0065
  8.900   -7.1691    0.3638   -7.2939    0.3582   -7.1712    0.3817   -7.1893    0.3244   -7.1861    0.3893   -7.1940    0.3987   -5.4311  -48.0085
  8.910   -7.1336    0.3665   -7.2620    0.3590   -7.1355    0.3842   -7.1540    0.3257   -7.1518    0.3918   -7.1597    0.4012   -6.9386  -48.0110
  8.920   -7.0977    0.3694   -7.2299    0.3599   -7.0994    0.3869   -7.1184    0.3273   -7.1173    0.3946   -7.1251    0.4039   -8.8103  -48.0143
  8.930   -7.0616    0.3726   -7.1977    0.3608   -7.0630    0.3898   -7.0824    0.3290   -7.0825    0.3976   -7.0903    0.4068  -11.1166  -48.0184
  8.940   -7.0250    0.3761   -7.1654    0.3620   -7.0262    0.3930   -7.0461    0.3309   -7.0474    0.4008   -7.0552    0.4100  -13.9365  -48.0235
  8.950   -6.9881    0.3799   -7.1328    0.3632   -6.9890    0.3965   -7.0094    0.3330   -7.0120    0.4044   -7.0198    0.4135  -17.3566  -48.0299
  8.960   -6.9508    0.3840   -7.1001    0.3646   -6.9513    0.4003   -6.9722    0.3353   -6.9762    0.4082   -6.9840    0.4173  -21.4706  -48.0378
  8.970   -6.9129    0.3885   -7.0672    0.3661   -6.9131    0.4045   -6.9346    0.3379   -6.9401    0.4124   -6.9479    0.4214  -26.3769  -48.0474
  8.980   -6.8746    0.3933   -7.0341    0.3679   -6.8744    0.4090   -6.8964    0.3408   -6.9036    0.4169   -6.9113    0.4259  -32.1775  -48.0593
  8.990   -6.8358    0.3986   -7.0007    0.3697   -6.8352    0.4140   -6.8577    0.3439   -6.8667    0.4219   -6.8744    0.4308  -38.9740  -48.0736
  9.000   -6.7964    0.4044   -6.9671    0.3718   -6.7953    0.4194   -6.8184    0.3474   -6.8293    0.4273   -6.8370    0.4362  -46.8649  -48.0908
  9.010   -6.7564    0.4107   -6.9332    0.3740   -6.7548    0.4253   -6.7785    0.3512   -6.7914    0.4331   -6.7991    0.4420  -55.9413  -48.1114
  9.020   -6.7158    0.4176   -6.8990    0.3765   -6.7136    0.4318   -6.7379    0.3554   -6.7530    0.4395   -6.7607    0.4483  -66.2828  -48.1357
  9.030   -6.6744    0.4250   -6.8645    0.3792   -6.6716    0.4388   -6.6965    0.3600   -6.7141    0.4464   -6.7217    0.4552  -77.9528  -48.1644
  9.040   -6.6323    0.4332   -6.8297    0.3821   -6.6289    0.4465   -6.6544    0.3651   -6.6745    0.4539   -6.6822    0.4627  -90.9942  -48.1978
  9.050   -6.5894    0.4421   -6.7945    0.3853   -6.5852    0.4550   -6.6113    0.3707   -6.6344    0.4621   -6.6420    0.4708 -105.4259  -48.2366
  9.060   -6.5456    0.4518   -6.7590    0.3888   -6.5405    0.4642   -6.5673    0.3769   -6.5935    0.4711   -6.6011    0.4797 -121.2393  -48.2811
  9.070   -6.5009    0.4625   -6.7230    0.3926   -6.4949    0.4744   -6.5223    0.3838   -6.5519    0.4808   -6.5596    0.4895 -138.3970  -48.3320
  9.080   -6.4551    0.4742   -6.6865    0.3967   -6.4481    0.4856   -6.4761    0.3913   -6.5095    0.4915   -6.5172    0.5001 -156.8319  -48.3896
  9.090   -6.4083    0.4870   -6.6496    0.4012   -6.4001    0.4978   -6.4288    0.3997   -6.4663    0.5032   -6.4740    0.5117 -176.4490  -48.4545
  9.100   -6.3604    0.5012   -6.6122    0.4061   -6.3508    0.5114   -6.3801    0.4090   -6.4223    0.5160   -6.4299    0.5245 -197.1291  -48.5269
  9.110   -6.3112    0.5167   -6.5742    0.4114   -6.3001    0.5263   -6.3299    0.4193   -6.3772    0.5301   -6.3849    0.5386 -218.7343  -48.6073
  9.120   -6.2606    0.5339   -6.5356    0.4172   -6.2479    0.5429   -6.2782    0.4308   -6.3312    0.5456   -6.3388    0.5540 -241.1161  -48.6959
  9.130   -6.2087    0.5529   -6.4964    0.4235   -6.1940    0.5613   -6.2247    0.4436   -6.2841    0.5626   -6.2918    0.5710 -264.1253  -48.7930
  9.140   -6.1552    0.5740   -6.4565    0.4303   -6.1383    0.5817   -6.1694    0.4579   -6.2359    0.5815   -6.2436    0.5898 -287.6239  -48.8987
  9.150   -6.1002    0.5974   -6.4159    0.4378   -6.0808    0.6045   -6.1120    0.4740   -6.1865    0.6023   -6.1942    0.6105 -311.4984  -49.0131
  9.160   -6.0434    0.6234   -6.3744    0.4459   -6.0211    0.6300   -6.0524    0.4921   -6.1359    0.6253   -6.1436    0.6336 -335.6742  -49.1365
  9.170   -5.9849    0.6526   -6.3321    0.4547   -5.9592    0.6586   -5.9903    0.5125   -6.0840    0.6510   -6.0917    0.6592 -360.1299  -49.2688
  9.180   -5.9244    0.6852   -6.2889    0.4644   -5.8949    0.6908   -5.9255    0.5356   -6.0308    0.6795   -6.0385    0.6876 -384.9119  -49.4103
  9.190   -5.8621    0.7218   -6.2447    0.4750   -5.8281    0.7272   -5.8578    0.5619   -5.9762    0.7114   -5.9840    0.7195 -410.1472  -49.5610
  9.200   -5.7977    0.7630   -6.1994    0.4866   -5.7585    0.7684   -5.7869    0.5919   -5.9204    0.7470   -5.9281    0.7551 -436.0540  -49.7213
  9.210   -5.7314    0.8095   -6.1530    0.4993   -5.6862    0.8154   -5.7126    0.6264   -5.8633    0.7871   -5.8711    0.7951 -462.9484  -49.8914
  9.220   -5.6631    0.8623   -6.1053    0.5132   -5.6109    0.8691   -5.6345    0.6660   -5.8050    0.8321   -5.8129    0.8400 -491.2461  -50.0719
  9.230   -5.5931    0.9223   -6.0562    0.5286   -5.5327    0.9307   -5.5524    0.7120   -5.7459    0.8829   -5.7538    0.8908 -521.4568  -50.2636
  9.240   -5.5216    0.9906   -6.0057    0.5455   -5.4517    1.0018   -5.4660    0.7654   -5.6861    0.9403   -5.6941    0.9482 -554.1693  -50.4672
  9.250   -5.4492    1.0687   -5.9536    0.5642   -5.3683    1.0841   -5.3753    0.8280   -5.6263    1.0054   -5.6343    1.0132 -590.0255  -50.6840
  9.260   -5.3765    1.1581   -5.8998    0.5849   -5.2829    1.1799   -5.2803    0.9016   -5.5671    1.0793   -5.5751    1.0870 -629.6821  -50.9154
  9.270   -5.3048    1.2608   -5.8440    0.6078   -5.1966    1.2918   -5.1813    0.9888   -5.5095    1.1632   -5.5176    1.1709 -673.7574  -51.1630
  9.280   -5.2356    1.3788   -5.7863    0.6334   -5.1112    1.4230   -5.0789    1.0924   -5.4551    1.2586   -5.4633    1.2661 -722.7665  -51.4287
  9.290   -5.1716    1.5142   -5.7263    0.6619   -5.0295    1.5771   -4.9747    1.2161   -5.4060    1.3667   -5.4142    1.3742 -777.0446  -51.7142
  9.300   -5.1159    1.6695   -5.6639    0.6939   -4.9557    1.7583   -4.8712    1.3643   -5.3648    1.4890   -5.3731    1.4963 -836.6660  -52.0217
  9.310   -5.0735    1.8467   -5.5988    0.7300   -4.8963    1.9709   -4.7727    1.5419   -5.3355    1.6262   -5.3438    1.6335 -901.3650  -52.3529
  9.320   -5.0507    2.0473   -5.5308    0.7707   -4.8607    2.2185   -4.6861    1.7541   -5.3227    1.7786   -5.3311    1.7857 -970.4699  -52.7096
  9.330   -5.0557    2.2711   -5.4596    0.8172   -4.8623    2.5031   -4.6217    2.0055   -5.3324    1.9447   -5.3409    1.9518 *********  -53.0928
  9.340   -5.0989    2.5155   -5.3850    0.8705   -4.9189    2.8220   -4.5944    2.2982   -5.3715    2.1213   -5.3801    2.1282 *********  -53.5033
  9.350   -5.1916    2.7737   -5.3070    0.9323   -5.0517    3.1647   -4.6237    2.6286   -5.4466    2.3013   -5.4554    2.3081 *********  -53.9409
  9.360   -5.3448    3.0329   -5.2258    1.0045   -5.2817    3.5083   -4.7317    2.9833   -5.5630    2.4742   -5.5719    2.4809 *********  -54.4047
  9.370   -5.5656    3.2733   -5.1421    1.0897   -5.6218    3.8148   -4.9374    3.3354   -5.7215    2.6254   -5.7307    2.6319 *********  -54.8928
  9.380   -5.8524    3.4698   -5.0575    1.1903   -6.0649    4.0351   -5.2467    3.6445   -5.9159    2.7388   -5.9253    2.7450 *********  -55.4025
  9.390   -6.1907    3.5970   -4.9747    1.3091   -6.5755    4.1227   -5.6424    3.8659   -6.1317    2.8013   -6.1413    2.8070 *********  -55.9300
  9.400   -6.5535    3.6374   -4.8970    1.4482   -7.0930    4.0541   -6.0826    3.9676   -6.3483    2.8077   -6.3580    2.8128 *********  -56.4709
  9.410   -6.9079    3.5887   -4.8285    1.6090   -7.5517    3.8420   -6.5134    3.9450   -6.5448    2.7638   -6.5545    2.7684 *********  -57.0204
  9.420   -7.2249    3.4639   -4.7737    1.7928   -7.9050    3.5302   -6.8895    3.8222   -6.7064    2.6843   -6.7159    2.6883 *********  -57.5733
  9.430   -7.4867    3.2859   -4.7382    2.0006   -8.1369    3.1733   -7.1879    3.6383   -6.8273    2.5875   -6.8365    2.5909 *********  -58.1241
  9.440   -7.6882    3.0790   -4.7287    2.2326   -8.2578    2.8184   -7.4081    3.4314   -6.9104    2.4903   -6.9191    2.4932 *********  -58.6677
  9.450   -7.8335    2.8635   -4.7543    2.4879   -8.2917    2.4961   -7.5643    3.2290   -6.9640    2.4053   -6.9722    2.4077 *********  -59.1995
  9.460   -7.9322    2.6533   -4.8260    2.7622   -8.2658    2.2212   -7.6761    3.0454   -6.9998    2.3396   -7.0074    2.3417 *********  -59.7153
  9.470   -7.9953    2.4560   -4.9556    3.0465   -8.2040    1.9974   -7.7624    2.8843   -7.0298    2.2952   -7.0369    2.2971 *********  -60.2116
  9.480   -8.0330    2.2744   -5.1539    3.3254   -8.1256    1.8215   -7.8380    2.7419   -7.0657    2.2690   -7.0722    2.2709 *********  -60.6857
  9.490   -8.0533    2.1077   -5.4263    3.5764   -8.0448    1.6863   -7.9120    2.6098   -7.1162    2.2535   -7.1222    2.2554 *********  -61.1355
  9.500   -8.0615    1.9532   -5.7686    3.7725   -7.9712    1.5824   -7.9875    2.4780   -7.1859    2.2382   -7.1912    2.2402 *********  -61.5596
  9.510   -8.0602    1.8077   -6.1637    3.8875   -7.9099    1.4998   -8.0616    2.3380   -7.2735    2.2113   -7.2783    2.2134 *********  -61.9574
  9.520   -8.0499    1.6690   -6.5822    3.9037   -7.8619    1.4289   -8.1272    2.1849   -7.3722    2.1632   -7.3766    2.1656 *********  -62.3285
  9.530   -8.0299    1.5361   -6.9886    3.8183   -7.8246    1.3621   -8.1763    2.0194   -7.4714    2.0892   -7.4755    2.0919 -937.7487  -62.6731
  9.540   -7.9997    1.4099   -7.3504    3.6445   -7.7939    1.2950   -8.2026    1.8465   -7.5601    1.9904   -7.5639    1.9935 -867.0406  -62.9917
  9.550   -7.9597    1.2916   -7.6459    3.4067   -7.7650    1.2258   -8.2037    1.6737   -7.6298    1.8729   -7.6334    1.8764 -798.3814  -63.2851
  9.560   -7.9112    1.1828   -7.8665    3.1329   -7.7346    1.1553   -8.1808    1.5081   -7.6764    1.7448   -7.6798    1.7486 -732.3065  -63.5542
  9.570   -7.8560    1.0843   -8.0152    2.8479   -7.7006    1.0850   -8.1381    1.3551   -7.6996    1.6141   -7.7030    1.6181 -669.2232  -63.8002
  9.580   -7.7964    0.9962   -8.1017    2.5701   -7.6625    1.0167   -8.0804    1.2177   -7.7019    1.4869   -7.7053    1.4912 -609.4380  -64.0241
  9.590   -7.7340    0.9183   -8.1384    2.3108   -7.6204    0.9520   -8.0128    1.0965   -7.6872    1.3673   -7.6906    1.3719 -553.1754  -64.2274
  9.600   -7.6706    0.8496   -8.1376    2.0756   -7.5752    0.8915   -7.9392    0.9912   -7.6593    1.2576   -7.6627    1.2624 -500.5898  -64.4114
  9.610   -7.6073    0.7893   -8.1099    1.8664   -7.5276    0.8359   -7.8628    0.9002   -7.6218    1.1584   -7.6253    1.1633 -451.7709  -64.5774
  9.620   -7.5449    0.7363   -8.0635    1.6825   -7.4787    0.7852   -7.7859    0.8219   -7.5778    1.0697   -7.5814    1.0748 -406.7467  -64.7269
  9.630   -7.4838    0.6896   -8.0049    1.5218   -7.4290    0.7391   -7.7100    0.7545   -7.5295    0.9908   -7.5331    0.9959 -365.4858  -64.8612
  9.640   -7.4245    0.6484   -7.9389    1.3820   -7.3792    0.6975   -7.6359    0.6965   -7.4787    0.9208   -7.4824    0.9260 -327.9008  -64.9817
  9.650   -7.3670    0.6118   -7.8687    1.2604   -7.3297    0.6599   -7.5642    0.6463   -7.4266    0.8587   -7.4303    0.8640 -293.8535  -65.0897
  9.660   -7.3115    0.5793   -7.7966    1.1546   -7.2809    0.6260   -7.4953    0.6028   -7.3742    0.8036   -7.3780    0.8089 -263.1625  -65.1864
  9.670   -7.2580    0.5503   -7.7243    1.0623   -7.2328    0.5953   -7.4292    0.5649   -7.3220    0.7546   -7.3258    0.7600 -235.6121  -65.2730
  9.680   -7.2063    0.5243   -7.6528    0.9817   -7.1858    0.5675   -7.3659    0.5317   -7.2705    0.7110   -7.2744    0.7164 -210.9631  -65.3505
  9.690   -7.1565    0.5009   -7.5827    0.9110   -7.1399    0.5424   -7.3054    0.5025   -7.2200    0.6721   -7.2239    0.6775 -188.9624  -65.4199
  9.700   -7.1085    0.4797   -7.5146    0.8488   -7.0950    0.5195   -7.2474    0.4767   -7.1706    0.6372   -7.1746    0.6426 -169.3537  -65.4822
  9.710   -7.0620    0.4606   -7.4487    0.7938   -7.0514    0.4987   -7.1919    0.4538   -7.1225    0.6058   -7.1265    0.6113 -151.8849  -65.5380
  9.720   -7.0172    0.4431   -7.3850    0.7452   -7.0088    0.4797   -7.1388    0.4334   -7.0757    0.5775   -7.0797    0.5830 -136.3161  -65.5881
  9.730   -6.9738    0.4272   -7.3237    0.7019   -6.9674    0.4624   -7.0878    0.4151   -7.0302    0.5519   -7.0342    0.5575 -122.4240  -65.6331
  9.740   -6.9318    0.4126   -7.2646    0.6633   -6.9270    0.4464   -7.0388    0.3986   -6.9860    0.5287   -6.9900    0.5343 -110.0053  -65.6735
  9.750   -6.8911    0.3992   -7.2077    0.6287   -6.8878    0.4318   -6.9917    0.3837   -6.9430    0.5076   -6.9471    0.5132  -98.8786  -65.7098
  9.760   -6.8517    0.3869   -7.1530    0.5976   -6.8495    0.4183   -6.9464    0.3702   -6.9013    0.4884   -6.9054    0.4939  -88.8845  -65.7425
  9.770   -6.8133    0.3755   -7.1003    0.5695   -6.8122    0.4058   -6.9026    0.3579   -6.8607    0.4708   -6.8648    0.4763  -79.8847  -65.7719
  9.780   -6.7761    0.3650   -7.0496    0.5442   -6.7758    0.3943   -6.8604    0.3467   -6.8212    0.4546   -6.8254    0.4601  -71.7608  -65.7982
  9.790   -6.7398    0.3552   -7.0006    0.5211   -6.7403    0.3836   -6.8196    0.3365   -6.7829    0.4397   -6.7870    0.4452  -64.4120  -65.8219
  9.800   -6.7045    0.3461   -6.9534    0.5002   -6.7057    0.3736   -6.7800    0.3270   -6.7455    0.4260   -6.7497    0.4315  -57.7530  -65.8431
  9.810   -6.6701    0.3376   -6.9078    0.4811   -6.6718    0.3643   -6.7417    0.3183   -6.7091    0.4133   -6.7133    0.4188  -51.7116  -65.8621
  9.820   -6.6366    0.3297   -6.8637    0.4636   -6.6388    0.3557   -6.7046    0.3103   -6.6737    0.4015   -6.6778    0.4070  -46.2266  -65.8791
  9.830   -6.6038    0.3222   -6.8211    0.4475   -6.6064    0.3476   -6.6684    0.3028   -6.6391    0.3906   -6.6433    0.3961  -41.2460  -65.8943
  9.840   -6.5718    0.3153   -6.7798    0.4328   -6.5747    0.3400   -6.6333    0.2959   -6.6053    0.3804   -6.6095    0.3859  -36.7249  -65.9078
  9.850   -6.5405    0.3087   -6.7398    0.4192   -6.5437    0.3329   -6.5991    0.2895   -6.5724    0.3710   -6.5765    0.3764  -32.6243  -65.9198
  9.860   -6.5098    0.3026   -6.7009    0.4066   -6.5134    0.3262   -6.5658    0.2834   -6.5401    0.3621   -6.5443    0.3675  -28.9099  -65.9304
  9.870   -6.4798    0.2968   -6.6632    0.3949   -6.4836    0.3199   -6.5332    0.2778   -6.5086    0.3538   -6.5128    0.3592  -25.5509  -65.9398
  9.880   -6.4504    0.2913   -6.6265    0.3841   -6.4544    0.3140   -6.5015    0.2725   -6.4778    0.3460   -6.4820    0.3514  -22.5194  -65.9481
  9.890   -6.4215    0.2861   -6.5908    0.3740   -6.4257    0.3083   -6.4705    0.2676   -6.4476    0.3387   -6.4518    0.3441  -19.7901  -65.9553
  9.900   -6.3932    0.2812   -6.5560    0.3646   -6.3976    0.3030   -6.4401    0.2629   -6.4180    0.3318   -6.4221    0.3372  -17.3390  -65.9617
  9.910   -6.3654    0.2765   -6.5221    0.3559   -6.3699    0.2980   -6.4104    0.2585   -6.3889    0.3254   -6.3931    0.3307  -15.1442  -65.9673
  9.920   -6.3381    0.2721   -6.4891    0.3477   -6.3428    0.2932   -6.3813    0.2543   -6.3605    0.3192   -6.3646    0.3246  -13.1847  -65.9721
  9.930   -6.3113    0.2679   -6.4568    0.3400   -6.3160    0.2887   -6.3528    0.2504   -6.3325    0.3134   -6.3367    0.3188  -11.4411  -65.9763
  9.940   -6.2849    0.2639   -6.4252    0.3328   -6.2897    0.2843   -6.3248    0.2467   -6.3051    0.3080   -6.3092    0.3133   -9.8947  -65.9799
  9.950   -6.2589    0.2600   -6.3944    0.3260   -6.2639    0.2802   -6.2974    0.2431   -6.2781    0.3027   -6.2823    0.3081   -8.5280  -65.9831
  9.960   -6.2334    0.2564   -6.3642    0.3196   -6.2384    0.2763   -6.2704    0.2397   -6.2516    0.2978   -6.2557    0.3031   -7.3245  -65.9858
  9.970   -6.2082    0.2529   -6.3346    0.3135   -6.2133    0.2725   -6.2439    0.2365   -6.2255    0.2931   -6.2296    0.2984   -6.2687  -65.9881
  9.980   -6.1834    0.2496   -6.3057    0.3078   -6.1885    0.2690   -6.2179    0.2335   -6.1998    0.2886   -6.2040    0.2939   -5.3458  -65.9900
  9.990   -6.1590    0.2464   -6.2772    0.3024   -6.1641    0.2655   -6.1923    0.2305   -6.1745    0.2844   -6.1787    0.2896   -4.5424  -65.9919
 10.000   -6.1349    0.2433   -6.2494    0.2973   -6.1400    0.2622   -6.1671    0.2278   -6.1496    0.2803   -6.1538    0.2855   -3.8456  -65.9924
