# Macroscopic dielectric function obtained with the BS equation.
#  RPA L0 with KS energies and KS wavefunctions     LOCAL FIELD EFFECTS INCLUDED
# RESONANT-ONLY calculation
# Coulomb term constructed with full W(G1,G2)
# Scissor operator energy =  0.8000 [eV]
# nstates included in the diagonalization = 96
# npweps  = 113
# npwwfn  = 283
# nbands  = 8
# loband  = 2
# nkibz   = 3
# nkbz    = 8
# Lorentzian broadening =  0.0000 [eV]
# List of q-points for the optical limit:
# q =  0.938821, 0.000000, 0.000000, [Reduced coords] 
# q =  0.000000, 0.938821, 0.000000, [Reduced coords] 
# q =  0.000000, 0.000000, 0.938821, [Reduced coords] 
# q =  0.000000, 0.813043, 0.813043, [Reduced coords] 
# q =  0.813043, 0.000000, 0.813043, [Reduced coords] 
# q =  0.813043, 0.813043, 0.000000, [Reduced coords] 
# omega [eV]    RE(eps(q=1)) IM(eps(q=1) RE(eps(q=2) ) ... DOS   IDOS
  0.000   54.7635    0.1284   54.7528    0.1550   54.7589    0.1532   54.7412    0.1168   54.7995    0.1577   54.8092    0.1608    0.0000    0.0000
  0.010   54.7640    0.1308   54.7533    0.1575   54.7595    0.1557   54.7418    0.1193   54.8000    0.1603   54.8098    0.1634    0.0000    0.0000
  0.020   54.7656    0.1332   54.7549    0.1600   54.7611    0.1582   54.7434    0.1218   54.8016    0.1629   54.8114    0.1661    0.0000    0.0000
  0.030   54.7683    0.1357   54.7576    0.1625   54.7638    0.1607   54.7461    0.1243   54.8043    0.1656   54.8140    0.1687    0.0000    0.0000
  0.040   54.7721    0.1381   54.7613    0.1651   54.7675    0.1632   54.7498    0.1268   54.8080    0.1682   54.8178    0.1713    0.0000    0.0000
  0.050   54.7769    0.1406   54.7661    0.1676   54.7723    0.1658   54.7546    0.1292   54.8129    0.1709   54.8226    0.1740    0.0000    0.0000
  0.060   54.7828    0.1431   54.7720    0.1701   54.7782    0.1683   54.7605    0.1317   54.8187    0.1736   54.8285    0.1767    0.0000    0.0000
  0.070   54.7897    0.1455   54.7789    0.1727   54.7852    0.1709   54.7674    0.1343   54.8257    0.1762   54.8354    0.1794    0.0000    0.0000
  0.080   54.7977    0.1480   54.7869    0.1753   54.7932    0.1735   54.7755    0.1368   54.8337    0.1789   54.8435    0.1820    0.0000    0.0000
  0.090   54.8068    0.1505   54.7960    0.1779   54.8023    0.1761   54.7846    0.1393   54.8428    0.1816   54.8526    0.1847    0.0000    0.0000
  0.100   54.8170    0.1530   54.8061    0.1805   54.8125    0.1787   54.7947    0.1418   54.8530    0.1843   54.8628    0.1875    0.0000    0.0000
  0.110   54.8282    0.1556   54.8174    0.1831   54.8237    0.1813   54.8060    0.1444   54.8642    0.1871   54.8740    0.1902    0.0000    0.0000
  0.120   54.8406    0.1581   54.8297    0.1857   54.8360    0.1839   54.8183    0.1470   54.8766    0.1898   54.8864    0.1929    0.0000    0.0000
  0.130   54.8539    0.1606   54.8430    0.1883   54.8494    0.1865   54.8317    0.1495   54.8900    0.1926   54.8998    0.1957    0.0000    0.0000
  0.140   54.8684    0.1632   54.8575    0.1910   54.8639    0.1892   54.8461    0.1521   54.9045    0.1953   54.9143    0.1984    0.0000    0.0000
  0.150   54.8840    0.1657   54.8730    0.1936   54.8794    0.1918   54.8617    0.1547   54.9200    0.1981   54.9298    0.2012    0.0000    0.0000
  0.160   54.9006    0.1683   54.8896    0.1963   54.8961    0.1945   54.8783    0.1573   54.9367    0.2009   54.9465    0.2040    0.0000    0.0000
  0.170   54.9183    0.1709   54.9073    0.1990   54.9138    0.1972   54.8960    0.1599   54.9544    0.2037   54.9642    0.2068    0.0000    0.0000
  0.180   54.9371    0.1735   54.9261    0.2017   54.9326    0.1999   54.9148    0.1625   54.9732    0.2065   54.9831    0.2096    0.0000    0.0000
  0.190   54.9570    0.1761   54.9460    0.2044   54.9525    0.2026   54.9347    0.1652   54.9932    0.2094   55.0030    0.2124    0.0000    0.0000
  0.200   54.9780    0.1787   54.9669    0.2071   54.9735    0.2053   54.9557    0.1678   55.0142    0.2122   55.0240    0.2153    0.0000    0.0000
  0.210   55.0001    0.1814   54.9890    0.2098   54.9956    0.2081   54.9777    0.1705   55.0363    0.2151   55.0461    0.2182    0.0000    0.0000
  0.220   55.0233    0.1840   55.0121    0.2126   55.0187    0.2108   55.0009    0.1732   55.0595    0.2180   55.0694    0.2210    0.0000    0.0000
  0.230   55.0476    0.1867   55.0364    0.2154   55.0430    0.2136   55.0252    0.1758   55.0838    0.2209   55.0937    0.2239    0.0000    0.0000
  0.240   55.0729    0.1894   55.0617    0.2181   55.0684    0.2164   55.0505    0.1785   55.1092    0.2238   55.1191    0.2268    0.0000    0.0000
  0.250   55.0994    0.1920   55.0882    0.2209   55.0949    0.2192   55.0770    0.1813   55.1357    0.2267   55.1456    0.2298    0.0000    0.0000
  0.260   55.1270    0.1948   55.1158    0.2238   55.1225    0.2220   55.1046    0.1840   55.1634    0.2297   55.1733    0.2327    0.0000    0.0000
  0.270   55.1557    0.1975   55.1444    0.2266   55.1512    0.2248   55.1333    0.1867   55.1921    0.2326   55.2020    0.2357    0.0000    0.0000
  0.280   55.1855    0.2002   55.1742    0.2295   55.1810    0.2277   55.1631    0.1895   55.2220    0.2356   55.2319    0.2387    0.0000    0.0000
  0.290   55.2165    0.2030   55.2052    0.2323   55.2119    0.2306   55.1940    0.1923   55.2530    0.2386   55.2629    0.2417    0.0000    0.0000
  0.300   55.2486    0.2057   55.2372    0.2352   55.2440    0.2335   55.2261    0.1951   55.2851    0.2416   55.2950    0.2447    0.0000    0.0000
  0.310   55.2818    0.2085   55.2704    0.2381   55.2772    0.2364   55.2593    0.1979   55.3183    0.2447   55.3283    0.2477    0.0000    0.0000
  0.320   55.3161    0.2113   55.3047    0.2410   55.3115    0.2393   55.2936    0.2007   55.3527    0.2477   55.3627    0.2508    0.0000    0.0000
  0.330   55.3516    0.2142   55.3401    0.2440   55.3470    0.2423   55.3291    0.2036   55.3882    0.2508   55.3982    0.2539    0.0000    0.0000
  0.340   55.3882    0.2170   55.3767    0.2470   55.3836    0.2452   55.3657    0.2064   55.4249    0.2539   55.4349    0.2570    0.0000    0.0000
  0.350   55.4259    0.2199   55.4144    0.2499   55.4213    0.2482   55.4034    0.2093   55.4627    0.2570   55.4727    0.2601    0.0000    0.0000
  0.360   55.4648    0.2227   55.4533    0.2530   55.4602    0.2512   55.4423    0.2122   55.5017    0.2602   55.5117    0.2632    0.0000    0.0000
  0.370   55.5049    0.2256   55.4933    0.2560   55.5003    0.2542   55.4823    0.2151   55.5418    0.2634   55.5518    0.2664    0.0000    0.0000
  0.380   55.5461    0.2286   55.5345    0.2590   55.5415    0.2573   55.5235    0.2181   55.5831    0.2665   55.5931    0.2696    0.0000    0.0000
  0.390   55.5885    0.2315   55.5768    0.2621   55.5839    0.2604   55.5659    0.2210   55.6256    0.2697   55.6356    0.2728    0.0000    0.0000
  0.400   55.6321    0.2345   55.6204    0.2652   55.6274    0.2635   55.6095    0.2240   55.6692    0.2730   55.6792    0.2760    0.0000    0.0000
  0.410   55.6768    0.2374   55.6651    0.2683   55.6722    0.2666   55.6542    0.2270   55.7140    0.2762   55.7240    0.2793    0.0000    0.0000
  0.420   55.7227    0.2404   55.7109    0.2714   55.7181    0.2697   55.7001    0.2300   55.7600    0.2795   55.7700    0.2825    0.0000    0.0000
  0.430   55.7698    0.2435   55.7580    0.2746   55.7652    0.2729   55.7472    0.2331   55.8072    0.2828   55.8172    0.2858    0.0000    0.0000
  0.440   55.8181    0.2465   55.8063    0.2778   55.8135    0.2761   55.7955    0.2361   55.8556    0.2862   55.8656    0.2892    0.0000    0.0000
  0.450   55.8677    0.2496   55.8558    0.2810   55.8630    0.2793   55.8450    0.2392   55.9052    0.2895   55.9152    0.2925    0.0000    0.0000
  0.460   55.9184    0.2527   55.9064    0.2842   55.9137    0.2825   55.8957    0.2423   55.9560    0.2929   55.9661    0.2959    0.0000    0.0000
  0.470   55.9703    0.2558   55.9583    0.2875   55.9656    0.2858   55.9476    0.2455   56.0080    0.2963   56.0181    0.2993    0.0000    0.0000
  0.480   56.0235    0.2589   56.0114    0.2908   56.0188    0.2891   56.0007    0.2486   56.0612    0.2997   56.0713    0.3028    0.0000    0.0000
  0.490   56.0779    0.2621   56.0658    0.2941   56.0731    0.2924   56.0551    0.2518   56.1157    0.3032   56.1258    0.3062    0.0000    0.0000
  0.500   56.1335    0.2653   56.1214    0.2974   56.1287    0.2957   56.1107    0.2550   56.1714    0.3067   56.1816    0.3097    0.0000    0.0000
  0.510   56.1903    0.2685   56.1782    0.3008   56.1856    0.2991   56.1675    0.2583   56.2284    0.3102   56.2385    0.3132    0.0000    0.0000
  0.520   56.2485    0.2717   56.2363    0.3042   56.2437    0.3025   56.2256    0.2615   56.2866    0.3138   56.2968    0.3168    0.0000    0.0000
  0.530   56.3078    0.2750   56.2956    0.3076   56.3031    0.3059   56.2850    0.2648   56.3461    0.3174   56.3562    0.3204    0.0000    0.0000
  0.540   56.3685    0.2783   56.3562    0.3111   56.3637    0.3094   56.3456    0.2681   56.4068    0.3210   56.4170    0.3240    0.0000    0.0000
  0.550   56.4304    0.2816   56.4181    0.3146   56.4256    0.3129   56.4075    0.2715   56.4688    0.3246   56.4790    0.3276    0.0000    0.0000
  0.560   56.4936    0.2850   56.4812    0.3181   56.4888    0.3164   56.4707    0.2748   56.5321    0.3283   56.5424    0.3313    0.0000    0.0000
  0.570   56.5581    0.2883   56.5457    0.3216   56.5533    0.3199   56.5351    0.2782   56.5967    0.3320   56.6070    0.3350    0.0000    0.0000
  0.580   56.6239    0.2918   56.6114    0.3252   56.6191    0.3235   56.6009    0.2816   56.6627    0.3357   56.6729    0.3387   -0.0000   -0.0000
  0.590   56.6910    0.2952   56.6785    0.3288   56.6862    0.3271   56.6680    0.2851   56.7299    0.3395   56.7401    0.3425   -0.0000   -0.0000
  0.600   56.7594    0.2987   56.7469    0.3325   56.7546    0.3308   56.7364    0.2886   56.7984    0.3433   56.8087    0.3463   -0.0000   -0.0000
  0.610   56.8292    0.3022   56.8166    0.3361   56.8243    0.3344   56.8061    0.2921   56.8683    0.3471   56.8786    0.3501   -0.0000   -0.0000
  0.620   56.9003    0.3057   56.8876    0.3399   56.8954    0.3382   56.8772    0.2956   56.9395    0.3510   56.9498    0.3540   -0.0000   -0.0000
  0.630   56.9728    0.3093   56.9600    0.3436   56.9678    0.3419   56.9496    0.2992   57.0121    0.3549   57.0224    0.3579   -0.0000   -0.0000
  0.640   57.0466    0.3129   57.0338    0.3474   57.0416    0.3457   57.0234    0.3028   57.0860    0.3589   57.0964    0.3619   -0.0000   -0.0000
  0.650   57.1217    0.3165   57.1089    0.3512   57.1168    0.3495   57.0986    0.3065   57.1613    0.3629   57.1717    0.3659   -0.0000   -0.0000
  0.660   57.1983    0.3201   57.1854    0.3550   57.1933    0.3533   57.1751    0.3102   57.2380    0.3669   57.2484    0.3699   -0.0000   -0.0000
  0.670   57.2762    0.3238   57.2633    0.3589   57.2713    0.3572   57.2530    0.3139   57.3161    0.3709   57.3265    0.3739   -0.0000   -0.0000
  0.680   57.3556    0.3276   57.3426    0.3629   57.3506    0.3612   57.3324    0.3176   57.3956    0.3751   57.4060    0.3780   -0.0000   -0.0000
  0.690   57.4364    0.3313   57.4233    0.3668   57.4313    0.3651   57.4131    0.3214   57.4765    0.3792   57.4869    0.3822   -0.0000   -0.0000
  0.700   57.5186    0.3352   57.5054    0.3708   57.5135    0.3691   57.4953    0.3252   57.5588    0.3834   57.5693    0.3864   -0.0000   -0.0000
  0.710   57.6022    0.3390   57.5890    0.3749   57.5971    0.3732   57.5788    0.3291   57.6426    0.3876   57.6531    0.3906   -0.0000   -0.0000
  0.720   57.6873    0.3429   57.6740    0.3790   57.6822    0.3773   57.6639    0.3330   57.7278    0.3919   57.7383    0.3949   -0.0000   -0.0000
  0.730   57.7738    0.3468   57.7605    0.3831   57.7687    0.3814   57.7504    0.3369   57.8145    0.3962   57.8250    0.3992   -0.0000   -0.0000
  0.740   57.8618    0.3508   57.8485    0.3873   57.8567    0.3856   57.8384    0.3409   57.9027    0.4005   57.9132    0.4035   -0.0000   -0.0000
  0.750   57.9513    0.3548   57.9379    0.3915   57.9462    0.3898   57.9279    0.3449   57.9924    0.4049   58.0029    0.4079   -0.0000   -0.0000
  0.760   58.0423    0.3588   58.0288    0.3957   58.0371    0.3940   58.0188    0.3490   58.0835    0.4094   58.0941    0.4124   -0.0000   -0.0000
  0.770   58.1348    0.3629   58.1213    0.4000   58.1296    0.3983   58.1113    0.3531   58.1762    0.4139   58.1868    0.4169   -0.0000   -0.0000
  0.780   58.2289    0.3670   58.2153    0.4044   58.2236    0.4027   58.2053    0.3572   58.2704    0.4184   58.2810    0.4214   -0.0000   -0.0000
  0.790   58.3245    0.3712   58.3108    0.4088   58.3192    0.4071   58.3009    0.3614   58.3662    0.4230   58.3768    0.4260   -0.0000   -0.0000
  0.800   58.4216    0.3754   58.4079    0.4132   58.4163    0.4115   58.3980    0.3656   58.4635    0.4276   58.4741    0.4306   -0.0000   -0.0000
  0.810   58.5203    0.3797   58.5065    0.4177   58.5150    0.4160   58.4967    0.3699   58.5624    0.4323   58.5730    0.4353   -0.0000   -0.0000
  0.820   58.6206    0.3840   58.6068    0.4222   58.6153    0.4205   58.5969    0.3742   58.6629    0.4371   58.6735    0.4401   -0.0000   -0.0000
  0.830   58.7225    0.3883   58.7086    0.4268   58.7172    0.4251   58.6988    0.3786   58.7650    0.4419   58.7756    0.4449   -0.0000   -0.0000
  0.840   58.8260    0.3927   58.8120    0.4315   58.8207    0.4298   58.8023    0.3830   58.8687    0.4467   58.8794    0.4497   -0.0000   -0.0000
  0.850   58.9312    0.3972   58.9171    0.4361   58.9258    0.4345   58.9074    0.3875   58.9740    0.4516   58.9847    0.4546   -0.0000   -0.0000
  0.860   59.0380    0.4017   59.0239    0.4409   59.0326    0.4392   59.0142    0.3920   59.0810    0.4566   59.0917    0.4596   -0.0000   -0.0000
  0.870   59.1465    0.4062   59.1323    0.4457   59.1410    0.4440   59.1226    0.3965   59.1897    0.4616   59.2004    0.4646   -0.0000   -0.0000
  0.880   59.2566    0.4108   59.2423    0.4505   59.2511    0.4489   59.2328    0.4011   59.3001    0.4667   59.3108    0.4696   -0.0000   -0.0000
  0.890   59.3685    0.4155   59.3541    0.4555   59.3630    0.4538   59.3446    0.4058   59.4121    0.4718   59.4229    0.4748   -0.0000   -0.0000
  0.900   59.4821    0.4202   59.4676    0.4604   59.4765    0.4587   59.4581    0.4105   59.5259    0.4770   59.5367    0.4800   -0.0000   -0.0000
  0.910   59.5974    0.4250   59.5829    0.4654   59.5918    0.4638   59.5734    0.4153   59.6415    0.4822   59.6523    0.4852   -0.0000   -0.0000
  0.920   59.7145    0.4298   59.6999    0.4705   59.7088    0.4688   59.6904    0.4201   59.7587    0.4875   59.7696    0.4905   -0.0000   -0.0000
  0.930   59.8333    0.4347   59.8186    0.4757   59.8277    0.4740   59.8092    0.4250   59.8778    0.4929   59.8887    0.4959   -0.0000   -0.0000
  0.940   59.9540    0.4396   59.9392    0.4809   59.9483    0.4792   59.9298    0.4300   59.9987    0.4983   60.0096    0.5013   -0.0000   -0.0000
  0.950   60.0764    0.4446   60.0616    0.4861   60.0707    0.4845   60.0523    0.4350   60.1214    0.5038   60.1323    0.5068   -0.0000   -0.0000
  0.960   60.2007    0.4497   60.1858    0.4915   60.1949    0.4898   60.1765    0.4401   60.2459    0.5094   60.2568    0.5124   -0.0000   -0.0000
  0.970   60.3269    0.4548   60.3118    0.4969   60.3211    0.4952   60.3026    0.4452   60.3723    0.5151   60.3832    0.5181   -0.0000   -0.0000
  0.980   60.4549    0.4600   60.4398    0.5023   60.4490    0.5007   60.4306    0.4504   60.5006    0.5208   60.5115    0.5238   -0.0000   -0.0000
  0.990   60.5848    0.4652   60.5696    0.5079   60.5789    0.5062   60.5605    0.4556   60.6307    0.5266   60.6417    0.5295   -0.0000   -0.0000
  1.000   60.7166    0.4705   60.7014    0.5135   60.7107    0.5118   60.6923    0.4610   60.7628    0.5324   60.7738    0.5354   -0.0000   -0.0000
  1.010   60.8504    0.4759   60.8350    0.5192   60.8445    0.5175   60.8261    0.4664   60.8969    0.5383   60.9079    0.5413   -0.0000   -0.0000
  1.020   60.9862    0.4813   60.9707    0.5249   60.9802    0.5232   60.9618    0.4718   61.0329    0.5443   61.0439    0.5473   -0.0000   -0.0000
  1.030   61.1239    0.4868   61.1084    0.5307   61.1179    0.5290   61.0995    0.4774   61.1709    0.5504   61.1820    0.5534   -0.0000   -0.0000
  1.040   61.2637    0.4924   61.2480    0.5366   61.2576    0.5349   61.2392    0.4830   61.3109    0.5566   61.3220    0.5596   -0.0000   -0.0000
  1.050   61.4055    0.4981   61.3897    0.5426   61.3994    0.5409   61.3809    0.4886   61.4530    0.5628   61.4641    0.5658   -0.0000   -0.0000
  1.060   61.5493    0.5038   61.5335    0.5486   61.5432    0.5470   61.5248    0.4944   61.5971    0.5691   61.6083    0.5721   -0.0000   -0.0000
  1.070   61.6953    0.5096   61.6793    0.5548   61.6891    0.5531   61.6707    0.5002   61.7434    0.5755   61.7545    0.5785   -0.0000   -0.0000
  1.080   61.8433    0.5155   61.8273    0.5610   61.8371    0.5593   61.8187    0.5061   61.8917    0.5820   61.9029    0.5850   -0.0000   -0.0000
  1.090   61.9936    0.5215   61.9774    0.5673   61.9873    0.5656   61.9688    0.5121   62.0422    0.5886   62.0534    0.5916   -0.0000   -0.0000
  1.100   62.1459    0.5275   62.1297    0.5736   62.1396    0.5720   62.1212    0.5181   62.1949    0.5953   62.2061    0.5983   -0.0000   -0.0000
  1.110   62.3005    0.5336   62.2841    0.5801   62.2941    0.5784   62.2757    0.5243   62.3498    0.6020   62.3610    0.6050   -0.0000   -0.0000
  1.120   62.4573    0.5398   62.4408    0.5867   62.4509    0.5850   62.4325    0.5305   62.5069    0.6089   62.5182    0.6119   -0.0000   -0.0000
  1.130   62.6163    0.5461   62.5998    0.5933   62.6099    0.5916   62.5915    0.5368   62.6662    0.6158   62.6776    0.6188   -0.0000   -0.0000
  1.140   62.7777    0.5525   62.7610    0.6000   62.7712    0.5984   62.7528    0.5432   62.8279    0.6228   62.8393    0.6258   -0.0000   -0.0000
  1.150   62.9413    0.5590   62.9245    0.6069   62.9348    0.6052   62.9164    0.5497   62.9919    0.6300   63.0033    0.6330   -0.0000   -0.0000
  1.160   63.1073    0.5655   63.0904    0.6138   63.1007    0.6121   63.0823    0.5563   63.1582    0.6372   63.1696    0.6402   -0.0000   -0.0000
  1.170   63.2757    0.5722   63.2587    0.6208   63.2690    0.6191   63.2507    0.5629   63.3269    0.6445   63.3384    0.6475   -0.0000   -0.0000
  1.180   63.4465    0.5789   63.4294    0.6279   63.4398    0.6263   63.4214    0.5697   63.4980    0.6520   63.5095    0.6550   -0.0000   -0.0000
  1.190   63.6197    0.5858   63.6025    0.6352   63.6129    0.6335   63.5946    0.5765   63.6716    0.6595   63.6832    0.6625   -0.0000   -0.0000
  1.200   63.7955    0.5927   63.7781    0.6425   63.7886    0.6408   63.7703    0.5835   63.8477    0.6672   63.8593    0.6702   -0.0000   -0.0000
  1.210   63.9737    0.5998   63.9562    0.6499   63.9668    0.6482   63.9484    0.5906   64.0263    0.6750   64.0379    0.6780   -0.0000   -0.0000
  1.220   64.1545    0.6069   64.1368    0.6575   64.1475    0.6558   64.1292    0.5977   64.2074    0.6828   64.2191    0.6858   -0.0000   -0.0000
  1.230   64.3378    0.6142   64.3201    0.6651   64.3308    0.6634   64.3125    0.6050   64.3912    0.6908   64.4028    0.6938   -0.0000   -0.0000
  1.240   64.5238    0.6215   64.5059    0.6729   64.5167    0.6712   64.4984    0.6124   64.5775    0.6990   64.5892    0.7020   -0.0000   -0.0000
  1.250   64.7125    0.6290   64.6944    0.6808   64.7053    0.6791   64.6870    0.6199   64.7666    0.7072   64.7783    0.7102   -0.0000   -0.0000
  1.260   64.9038    0.6366   64.8856    0.6888   64.8966    0.6871   64.8783    0.6275   64.9583    0.7156   64.9701    0.7186   -0.0000   -0.0000
  1.270   65.0979    0.6443   65.0796    0.6969   65.0906    0.6952   65.0724    0.6352   65.1528    0.7240   65.1646    0.7271   -0.0000   -0.0000
  1.280   65.2948    0.6521   65.2763    0.7051   65.2874    0.7035   65.2692    0.6430   65.3501    0.7327   65.3619    0.7357   -0.0000   -0.0000
  1.290   65.4945    0.6600   65.4759    0.7135   65.4870    0.7118   65.4688    0.6510   65.5502    0.7414   65.5621    0.7444   -0.0000   -0.0000
  1.300   65.6970    0.6680   65.6783    0.7220   65.6895    0.7203   65.6714    0.6591   65.7532    0.7503   65.7651    0.7533   -0.0000   -0.0000
  1.310   65.9025    0.6762   65.8836    0.7307   65.8949    0.7290   65.8768    0.6673   65.9591    0.7593   65.9710    0.7623   -0.0000   -0.0000
  1.320   66.1109    0.6845   66.0919    0.7394   66.1033    0.7377   66.0852    0.6756   66.1680    0.7685   66.1799    0.7715   -0.0000   -0.0000
  1.330   66.3223    0.6930   66.3032    0.7483   66.3146    0.7467   66.2965    0.6841   66.3798    0.7778   66.3918    0.7808   -0.0000   -0.0000
  1.340   66.5368    0.7016   66.5175    0.7574   66.5290    0.7557   66.5110    0.6927   66.5948    0.7873   66.6068    0.7903   -0.0000   -0.0000
  1.350   66.7544    0.7103   66.7349    0.7666   66.7465    0.7649   66.7285    0.7014   66.8128    0.7969   66.8249    0.7999   -0.0000   -0.0000
  1.360   66.9751    0.7191   66.9555    0.7759   66.9672    0.7742   66.9492    0.7103   67.0340    0.8066   67.0461    0.8097   -0.0000   -0.0000
  1.370   67.1990    0.7281   67.1792    0.7854   67.1910    0.7837   67.1730    0.7193   67.2584    0.8166   67.2705    0.8196   -0.0000   -0.0000
  1.380   67.4262    0.7373   67.4062    0.7951   67.4181    0.7934   67.4001    0.7285   67.4860    0.8267   67.4982    0.8297   -0.0000   -0.0000
  1.390   67.6566    0.7465   67.6365    0.8049   67.6485    0.8032   67.6305    0.7378   67.7170    0.8369   67.7292    0.8399   -0.0000   -0.0000
  1.400   67.8904    0.7560   67.8702    0.8148   67.8822    0.8132   67.8643    0.7473   67.9513    0.8473   67.9636    0.8503   -0.0000   -0.0000
  1.410   68.1276    0.7656   68.1072    0.8250   68.1193    0.8233   68.1015    0.7569   68.1891    0.8579   68.2014    0.8609   -0.0000   -0.0000
  1.420   68.3683    0.7754   68.3477    0.8353   68.3599    0.8336   68.3421    0.7667   68.4303    0.8687   68.4426    0.8717   -0.0000   -0.0000
  1.430   68.6126    0.7853   68.5918    0.8458   68.6041    0.8441   68.5863    0.7767   68.6750    0.8797   68.6874    0.8827   -0.0000   -0.0000
  1.440   68.8604    0.7954   68.8394    0.8564   68.8518    0.8548   68.8341    0.7869   68.9234    0.8908   68.9358    0.8938   -0.0000   -0.0000
  1.450   69.1118    0.8057   69.0907    0.8673   69.1031    0.8656   69.0855    0.7972   69.1754    0.9022   69.1879    0.9052   -0.0000   -0.0000
  1.460   69.3670    0.8161   69.3457    0.8783   69.3582    0.8766   69.3406    0.8077   69.4311    0.9137   69.4437    0.9167   -0.0000   -0.0000
  1.470   69.6259    0.8268   69.6044    0.8895   69.6171    0.8879   69.5995    0.8184   69.6907    0.9254   69.7032    0.9284   -0.0000   -0.0000
  1.480   69.8887    0.8376   69.8670    0.9010   69.8797    0.8993   69.8622    0.8292   69.9540    0.9374   69.9666    0.9404   -0.0000   -0.0000
  1.490   70.1554    0.8486   70.1335    0.9126   70.1463    0.9109   70.1289    0.8403   70.2213    0.9495   70.2340    0.9525   -0.0000   -0.0000
  1.500   70.4261    0.8598   70.4040    0.9244   70.4169    0.9227   70.3995    0.8516   70.4926    0.9619   70.5053    0.9649   -0.0000   -0.0000
  1.510   70.7008    0.8713   70.6785    0.9365   70.6915    0.9348   70.6742    0.8630   70.7680    0.9745   70.7807    0.9775   -0.0000   -0.0000
  1.520   70.9797    0.8829   70.9571    0.9487   70.9703    0.9470   70.9530    0.8747   71.0474    0.9873   71.0603    0.9903   -0.0000   -0.0000
  1.530   71.2627    0.8947   71.2400    0.9612   71.2532    0.9595   71.2360    0.8866   71.3312    1.0004   71.3440    1.0034   -0.0000   -0.0000
  1.540   71.5500    0.9068   71.5271    0.9739   71.5404    0.9722   71.5233    0.8987   71.6191    1.0136   71.6320    1.0167   -0.0000   -0.0000
  1.550   71.8417    0.9190   71.8186    0.9868   71.8320    0.9852   71.8150    0.9110   71.9115    1.0272   71.9245    1.0302   -0.0000   -0.0000
  1.560   72.1378    0.9315   72.1145    1.0000   72.1280    0.9984   72.1111    0.9236   72.2083    1.0410   72.2213    1.0440   -0.0000   -0.0000
  1.570   72.4385    0.9443   72.4149    1.0135   72.4286    1.0118   72.4117    0.9364   72.5097    1.0550   72.5227    1.0580   -0.0000   -0.0000
  1.580   72.7438    0.9573   72.7199    1.0271   72.7337    1.0255   72.7169    0.9494   72.8156    1.0693   72.8288    1.0724   -0.0000   -0.0000
  1.590   73.0537    0.9705   73.0296    1.0411   73.0435    1.0394   73.0268    0.9627   73.1263    1.0839   73.1395    1.0869   -0.0000   -0.0000
  1.600   73.3685    0.9840   73.3442    1.0553   73.3581    1.0537   73.3415    0.9763   73.4418    1.0988   73.4551    1.1018   -0.0000   -0.0000
  1.610   73.6881    0.9977   73.6635    1.0698   73.6776    1.0681   73.6611    0.9901   73.7622    1.1139   73.7755    1.1170   -0.0000   -0.0000
  1.620   74.0127    1.0117   73.9879    1.0846   74.0021    1.0829   73.9857    1.0042   74.0876    1.1294   74.1009    1.1324   -0.0000   -0.0000
  1.630   74.3424    1.0260   74.3173    1.0996   74.3317    1.0980   74.3154    1.0186   74.4181    1.1452   74.4315    1.1482   -0.0000   -0.0000
  1.640   74.6772    1.0406   74.6519    1.1150   74.6664    1.1133   74.6502    1.0332   74.7537    1.1612   74.7672    1.1642   -0.0000   -0.0000
  1.650   75.0174    1.0555   74.9918    1.1306   75.0064    1.1290   74.9903    1.0482   75.0947    1.1776   75.1082    1.1806   -0.0000   -0.0000
  1.660   75.3629    1.0706   75.3371    1.1466   75.3518    1.1450   75.3358    1.0634   75.4411    1.1943   75.4547    1.1973   -0.0000   -0.0000
  1.670   75.7140    1.0861   75.6878    1.1629   75.7027    1.1613   75.6868    1.0790   75.7930    1.2114   75.8066    1.2144   -0.0000   -0.0000
  1.680   76.0706    1.1019   76.0442    1.1795   76.0592    1.1779   76.0435    1.0948   76.1505    1.2288   76.1642    1.2318   -0.0000   -0.0000
  1.690   76.4330    1.1180   76.4063    1.1965   76.4214    1.1949   76.4058    1.1110   76.5138    1.2465   76.5276    1.2495   -0.0000   -0.0000
  1.700   76.8012    1.1344   76.7743    1.2138   76.7895    1.2122   76.7740    1.1276   76.8829    1.2647   76.8968    1.2677   -0.0000   -0.0000
  1.710   77.1755    1.1512   77.1482    1.2315   77.1635    1.2299   77.1482    1.1445   77.2581    1.2832   77.2720    1.2862   -0.0000   -0.0000
  1.720   77.5558    1.1684   77.5282    1.2496   77.5437    1.2479   77.5286    1.1617   77.6394    1.3021   77.6534    1.3050   -0.0000   -0.0000
  1.730   77.9423    1.1859   77.9145    1.2680   77.9301    1.2664   77.9151    1.1794   78.0269    1.3214   78.0410    1.3243   -0.0000   -0.0000
  1.740   78.3353    1.2038   78.3071    1.2868   78.3228    1.2852   78.3080    1.1974   78.4208    1.3411   78.4350    1.3440   -0.0000   -0.0000
  1.750   78.7347    1.2221   78.7062    1.3061   78.7221    1.3045   78.7075    1.2158   78.8213    1.3612   78.8355    1.3642   -0.0000   -0.0000
  1.760   79.1408    1.2407   79.1120    1.3257   79.1280    1.3241   79.1135    1.2346   79.2284    1.3818   79.2427    1.3848   -0.0000   -0.0000
  1.770   79.5537    1.2598   79.5245    1.3458   79.5407    1.3442   79.5265    1.2538   79.6424    1.4028   79.6568    1.4058   -0.0000   -0.0000
  1.780   79.9736    1.2793   79.9441    1.3663   79.9604    1.3647   79.9463    1.2734   80.0633    1.4243   80.0778    1.4273   -0.0000   -0.0000
  1.790   80.4006    1.2993   80.3707    1.3873   80.3872    1.3857   80.3733    1.2935   80.4914    1.4463   80.5060    1.4492   -0.0000   -0.0000
  1.800   80.8348    1.3197   80.8046    1.4088   80.8213    1.4072   80.8076    1.3140   80.9268    1.4687   80.9414    1.4717   -0.0000   -0.0000
  1.810   81.2765    1.3405   81.2459    1.4307   81.2628    1.4291   81.2493    1.3350   81.3697    1.4917   81.3844    1.4946   -0.0000   -0.0000
  1.820   81.7259    1.3619   81.6949    1.4532   81.7119    1.4516   81.6986    1.3565   81.8202    1.5152   81.8350    1.5181   -0.0000   -0.0000
  1.830   82.1830    1.3837   82.1516    1.4761   82.1688    1.4745   82.1558    1.3785   82.2786    1.5392   82.2934    1.5422   -0.0000   -0.0000
  1.840   82.6481    1.4060   82.6164    1.4996   82.6337    1.4980   82.6209    1.4010   82.7449    1.5638   82.7599    1.5668   -0.0000   -0.0000
  1.850   83.1214    1.4289   83.0893    1.5236   83.1068    1.5221   83.0943    1.4241   83.2195    1.5890   83.2345    1.5919   -0.0000   -0.0000
  1.860   83.6031    1.4523   83.5705    1.5482   83.5882    1.5467   83.5760    1.4477   83.7025    1.6148   83.7176    1.6177   -0.0000   -0.0000
  1.870   84.0934    1.4763   84.0604    1.5734   84.0782    1.5719   84.0663    1.4718   84.1941    1.6412   84.2093    1.6441   -0.0000   -0.0000
  1.880   84.5924    1.5008   84.5590    1.5992   84.5770    1.5977   84.5653    1.4966   84.6945    1.6682   84.7098    1.6711   -0.0000   -0.0000
  1.890   85.1005    1.5260   85.0666    1.6257   85.0848    1.6241   85.0735    1.5219   85.2040    1.6959   85.2194    1.6988   -0.0000   -0.0000
  1.900   85.6178    1.5517   85.5835    1.6527   85.6019    1.6512   85.5908    1.5479   85.7227    1.7243   85.7382    1.7271   -0.0000   -0.0000
  1.910   86.1446    1.5781   86.1098    1.6805   86.1284    1.6790   86.1176    1.5745   86.2509    1.7533   86.2665    1.7562   -0.0000   -0.0000
  1.920   86.6810    1.6052   86.6458    1.7089   86.6646    1.7074   86.6542    1.6018   86.7889    1.7831   86.8046    1.7860   -0.0000   -0.0000
  1.930   87.2275    1.6330   87.1917    1.7381   87.2108    1.7366   87.2007    1.6298   87.3369    1.8137   87.3527    1.8165   -0.0000   -0.0000
  1.940   87.7842    1.6614   87.7479    1.7679   87.7671    1.7665   87.7574    1.6585   87.8951    1.8450   87.9111    1.8478   -0.0000   -0.0000
  1.950   88.3513    1.6906   88.3146    1.7986   88.3340    1.7971   88.3247    1.6880   88.4639    1.8771   88.4800    1.8799   -0.0000   -0.0000
  1.960   88.9293    1.7206   88.8920    1.8300   88.9116    1.8286   88.9027    1.7182   89.0435    1.9101   89.0597    1.9129   -0.0000   -0.0000
  1.970   89.5183    1.7513   89.4804    1.8623   89.5003    1.8609   89.4918    1.7492   89.6342    1.9439   89.6505    1.9467   -0.0000   -0.0000
  1.980   90.1186    1.7829   90.0802    1.8954   90.1004    1.8940   90.0923    1.7811   90.2363    1.9786   90.2527    1.9814   -0.0000   -0.0000
  1.990   90.7307    1.8153   90.6917    1.9294   90.7121    1.9280   90.7044    1.8138   90.8501    2.0142   90.8666    2.0170   -0.0000   -0.0000
  2.000   91.3547    1.8486   91.3151    1.9643   91.3357    1.9629   91.3285    1.8474   91.4760    2.0508   91.4926    2.0536   -0.0000   -0.0000
  2.010   91.9910    1.8828   91.9509    2.0002   91.9717    1.9988   91.9650    1.8819   92.1142    2.0884   92.1310    2.0912   -0.0000   -0.0000
  2.020   92.6401    1.9179   92.5993    2.0371   92.6204    2.0357   92.6142    1.9174   92.7652    2.1271   92.7821    2.1298   -0.0000   -0.0000
  2.030   93.3021    1.9540   93.2608    2.0749   93.2821    2.0736   93.2764    1.9539   93.4293    2.1668   93.4463    2.1695   -0.0000   -0.0000
  2.040   93.9776    1.9911   93.9356    2.1139   93.9572    2.1125   93.9520    1.9914   94.1068    2.2076   94.1239    2.2103   -0.0000   -0.0000
  2.050   94.6669    2.0293   94.6242    2.1539   94.6460    2.1526   94.6415    2.0300   94.7981    2.2496   94.8154    2.2522   -0.0000   -0.0000
  2.060   95.3704    2.0686   95.3270    2.1950   95.3491    2.1937   95.3451    2.0696   95.5038    2.2928   95.5212    2.2954   -0.0000   -0.0000
  2.070   96.0885    2.1090   96.0444    2.2374   96.0668    2.2361   96.0634    2.1105   96.2241    2.3372   96.2417    2.3398   -0.0000   -0.0000
  2.080   96.8217    2.1506   96.7769    2.2810   96.7996    2.2797   96.7968    2.1525   96.9596    2.3829   96.9773    2.3855   -0.0000   -0.0000
  2.090   97.5704    2.1934   97.5248    2.3259   97.5478    2.3246   97.5458    2.1959   97.7106    2.4300   97.7285    2.4325   -0.0000   -0.0000
  2.100   98.3351    2.2376   98.2888    2.3721   98.3121    2.3709   98.3107    2.2405   98.4778    2.4785   98.4958    2.4810   -0.0000   -0.0000
  2.110   99.1163    2.2830   99.0692    2.4197   99.0928    2.4185   99.0922    2.2864   99.2615    2.5284   99.2797    2.5309   -0.0000   -0.0000
  2.120   99.9145    2.3299   99.8666    2.4687   99.8905    2.4676   99.8907    2.3338  100.0622    2.5799  100.0806    2.5824   -0.0000   -0.0000
  2.130  100.7303    2.3782  100.6816    2.5193  100.7058    2.5182  100.7067    2.3827  100.8806    2.6330  100.8992    2.6354   -0.0000   -0.0000
  2.140  101.5642    2.4280  101.5146    2.5715  101.5391    2.5703  101.5409    2.4331  101.7172    2.6877  101.7360    2.6901   -0.0000   -0.0000
  2.150  102.4168    2.4794  102.3663    2.6252  102.3912    2.6241  102.3939    2.4851  102.5726    2.7441  102.5916    2.7465   -0.0000   -0.0000
  2.160  103.2887    2.5324  103.2373    2.6807  103.2626    2.6797  103.2661    2.5387  103.4474    2.8024  103.4665    2.8047   -0.0000   -0.0000
  2.170  104.1806    2.5871  104.1282    2.7380  104.1538    2.7370  104.1584    2.5941  104.3423    2.8625  104.3616    2.8648   -0.0000   -0.0000
  2.180  105.0931    2.6437  105.0398    2.7971  105.0657    2.7961  105.0713    2.6514  105.2578    2.9246  105.2773    2.9269   -0.0000   -0.0000
  2.190  106.0269    2.7021  105.9726    2.8582  105.9989    2.8573  106.0055    2.7105  106.1948    2.9887  106.2145    2.9910   -0.0000   -0.0000
  2.200  106.9828    2.7625  106.9274    2.9214  106.9542    2.9204  106.9618    2.7717  107.1540    3.0550  107.1739    3.0572   -0.0000   -0.0000
  2.210  107.9616    2.8249  107.9051    2.9866  107.9322    2.9857  107.9410    2.8349  108.1361    3.1236  108.1562    3.1257   -0.0000   -0.0000
  2.220  108.9639    2.8895  108.9063    3.0541  108.9339    3.0533  108.9439    2.9003  109.1419    3.1945  109.1623    3.1966   -0.0000   -0.0000
  2.230  109.9908    2.9563  109.9320    3.1240  109.9600    3.1231  109.9712    2.9681  110.1723    3.2678  110.1929    3.2699   -0.0000   -0.0000
  2.240  111.0430    3.0255  110.9830    3.1962  111.0114    3.1955  111.0240    3.0382  111.2282    3.3437  111.2490    3.3457   -0.0000   -0.0000
  2.250  112.1214    3.0972  112.0602    3.2711  112.0891    3.2703  112.1030    3.1108  112.3105    3.4224  112.3316    3.4243   -0.0000   -0.0000
  2.260  113.2272    3.1714  113.1647    3.3486  113.1941    3.3479  113.2094    3.1860  113.4202    3.5038  113.4415    3.5057   -0.0000   -0.0000
  2.270  114.3612    3.2484  114.2974    3.4289  114.3272    3.4283  114.3441    3.2641  114.5583    3.5883  114.5799    3.5901   -0.0000   -0.0000
  2.280  115.5246    3.3282  115.4594    3.5123  115.4897    3.5117  115.5082    3.3450  115.7259    3.6758  115.7478    3.6776   -0.0000   -0.0000
  2.290  116.7185    3.4110  116.6518    3.5987  116.6827    3.5982  116.7028    3.4290  116.9242    3.7667  116.9463    3.7684   -0.0000   -0.0000
  2.300  117.9440    3.4969  117.8758    3.6884  117.9073    3.6879  117.9291    3.5162  118.1542    3.8610  118.1767    3.8626   -0.0000   -0.0000
  2.310  119.2025    3.5862  119.1328    3.7815  119.1647    3.7811  119.1884    3.6068  119.4174    3.9589  119.4402    3.9604   -0.0000   -0.0000
  2.320  120.4952    3.6790  120.4239    3.8783  120.4564    3.8780  120.4820    3.7010  120.7150    4.0606  120.7381    4.0621   -0.0000   -0.0000
  2.330  121.8235    3.7755  121.7506    3.9789  121.7837    3.9786  121.8113    3.7989  122.0484    4.1664  122.0718    4.1678   -0.0000   -0.0000
  2.340  123.1890    3.8758  123.1143    4.0835  123.1480    4.0833  123.1777    3.9008  123.4191    4.2764  123.4429    4.2777   -0.0000   -0.0000
  2.350  124.5931    3.9803  124.5166    4.1924  124.5510    4.1923  124.5829    4.0068  124.8287    4.3910  124.8528    4.3922   -0.0000   -0.0000
  2.360  126.0376    4.0890  125.9591    4.3057  125.9942    4.3057  126.0285    4.1173  126.2788    4.5102  126.3033    4.5113   -0.0000   -0.0000
  2.370  127.5241    4.2024  127.4437    4.4238  127.4794    4.4239  127.5161    4.2324  127.7711    4.6345  127.7960    4.6355   -0.0000   -0.0000
  2.380  129.0544    4.3206  128.9719    4.5469  129.0084    4.5471  129.0477    4.3525  129.3076    4.7640  129.3329    4.7649   -0.0000   -0.0000
  2.390  130.6306    4.4439  130.5460    4.6754  130.5831    4.6756  130.6252    4.4779  130.8901    4.8991  130.9158    4.8999   -0.0000   -0.0000
  2.400  132.2546    4.5726  132.1678    4.8094  132.2057    4.8098  132.2507    4.6087  132.5208    5.0402  132.5469    5.0409   -0.0000   -0.0000
  2.410  133.9288    4.7071  133.8396    4.9494  133.8783    4.9499  133.9264    4.7455  134.2018    5.1876  134.2284    5.1882   -0.0000   -0.0000
  2.420  135.6553    4.8477  135.5637    5.0957  135.6032    5.0963  135.6545    4.8884  135.9355    5.3417  135.9625    5.3421   -0.0000   -0.0000
  2.430  137.4367    4.9949  137.3425    5.2488  137.3830    5.2495  137.4376    5.0381  137.7244    5.5028  137.7519    5.5031   -0.0000   -0.0000
  2.440  139.2757    5.1489  139.1788    5.4090  139.2201    5.4098  139.2784    5.1947  139.5712    5.6716  139.5992    5.6717   -0.0000   -0.0000
  2.450  141.1749    5.3102  141.0752    5.5768  141.1175    5.5778  141.1796    5.3589  141.4786    5.8483  141.5071    5.8483   -0.0000   -0.0000
  2.460  143.1375    5.4794  143.0348    5.7527  143.0781    5.7538  143.1442    5.5311  143.4497    6.0336  143.4787    6.0334   -0.0000   -0.0000
  2.470  145.1665    5.6570  145.0608    5.9372  145.1051    5.9385  145.1754    5.7119  145.4876    6.2281  145.5173    6.2277   -0.0000   -0.0000
  2.480  147.2655    5.8434  147.1565    6.1310  147.2019    6.1324  147.2768    5.9018  147.5959    6.4323  147.6262    6.4317   -0.0000   -0.0000
  2.490  149.4381    6.0395  149.3256    6.3346  149.3721    6.3363  149.4518    6.1014  149.7782    6.6469  149.8092    6.6462   -0.0000   -0.0000
  2.500  151.6882    6.2457  151.5720    6.5488  151.6197    6.5506  151.7046    6.3115  152.0385    6.8727  152.0701    6.8718   -0.0000   -0.0000
  2.510  154.0199    6.4629  153.9000    6.7743  153.9489    6.7763  154.0392    6.5328  154.3810    7.1105  154.4133    7.1094   -0.0000   -0.0000
  2.520  156.4379    6.6918  156.3139    7.0119  156.3641    7.0142  156.4601    6.7661  156.8101    7.3611  156.8432    7.3597   -0.0000   -0.0000
  2.530  158.9469    6.9334  158.8186    7.2626  158.8702    7.2651  158.9724    7.0123  159.3309    7.6255  159.3647    7.6239   -0.0000   -0.0000
  2.540  161.5521    7.1885  161.4193    7.5273  161.4724    7.5300  161.5811    7.2725  161.9485    7.9048  161.9832    7.9029   -0.0000   -0.0000
  2.550  164.2593    7.4583  164.1217    7.8070  164.1762    7.8101  164.2920    7.5476  164.6687    8.2001  164.7042    8.1979   -0.0000   -0.0000
  2.560  167.0744    7.7439  166.9317    8.1031  166.9879    8.1065  167.1111    7.8390  167.4975    8.5126  167.5340    8.5101   -0.0000   -0.0000
  2.570  170.0040    8.0465  169.8559    8.4168  169.9138    8.4205  170.0450    8.1478  170.4416    8.8438  170.4790    8.8410   -0.0000   -0.0000
  2.580  173.0553    8.3676  172.9015    8.7496  172.9612    8.7536  173.1009    8.4755  173.5081    9.1952  173.5466    9.1921   -0.0000   -0.0000
  2.590  176.2360    8.7088  176.0760    9.1030  176.1376    9.1074  176.2865    8.8238  176.7049    9.5685  176.7445    9.5650   -0.0000   -0.0000
  2.600  179.5545    9.0717  179.3879    9.4789  179.4515    9.4837  179.6102    9.1944  180.0403    9.9656  180.0811    9.9617   -0.0000   -0.0000
  2.610  183.0198    9.4583  182.8463    9.8791  182.9120    9.8844  183.0813    9.5893  183.5236   10.3886  183.5656   10.3843   -0.0000   -0.0000
  2.620  186.6420    9.8707  186.4610   10.3060  186.5290   10.3117  186.7096   10.0107  187.1648   10.8398  187.2081   10.8351   -0.0000   -0.0000
  2.630  190.4319   10.3114  190.2429   10.7619  190.3134   10.7681  190.5062   10.4611  190.9749   11.3218  191.0197   11.3167   -0.0000   -0.0000
  2.640  194.4014   10.7829  194.2039   11.2495  194.2769   11.2564  194.4829   10.9431  194.9658   11.8376  195.0121   11.8320   -0.0000   -0.0000
  2.650  198.5637   11.2883  198.3569   11.7721  198.4327   11.7796  198.6529   11.4599  199.1509   12.3904  199.1988   12.3843   -0.0000   -0.0000
  2.660  202.9330   11.8309  202.7163   12.3329  202.7950   12.3411  203.0306   12.0149  203.5444   12.9840  203.5941   12.9772   -0.0000   -0.0000
  2.670  207.5253   12.4145  207.2977   12.9360  207.3797   12.9449  207.6320   12.6121  208.1625   13.6224  208.2140   13.6150   -0.0000   -0.0000
  2.680  212.3579   13.0436  212.1187   13.5857  212.2041   13.5955  212.4745   13.2559  213.0226   14.3104  213.0762   14.3024   -0.0000   -0.0000
  2.690  217.4504   13.7228  217.1985   14.2871  217.2876   14.2977  217.5777   13.9514  218.1445   15.0534  218.2003   15.0446   -0.0000   -0.0000
  2.700  222.8241   14.4579  222.5585   15.0458  222.6515   15.0575  222.9631   14.7042  223.5496   15.8574  223.6078   15.8479   -0.0000   -0.0000
  2.710  228.5030   15.2551  228.2224   15.8684  228.3198   15.8812  228.6548   15.5209  229.2623   16.7294  229.3231   16.7190   -0.0000   -0.0000
  2.720  234.5140   16.1218  234.2170   16.7623  234.3190   16.7763  234.6797   16.4091  235.3093   17.6774  235.3730   17.6662   -0.0000   -0.0000
  2.730  240.8868   17.0665  240.5718   17.7362  240.6790   17.7516  241.0678   17.3775  241.7211   18.7107  241.7878   18.6985   -0.0000   -0.0000
  2.740  247.6553   18.0988  247.3205   18.8001  247.4332   18.8171  247.8530   18.4362  248.5313   19.8399  248.6014   19.8266   -0.0000   -0.0000
  2.750  254.8573   19.2302  254.5007   19.9656  254.6195   19.9843  255.0734   19.5968  255.7784   21.0775  255.8522   21.0630   -0.0000   -0.0000
  2.760  262.5358   20.4738  262.1551   21.2461  262.2805   21.2668  262.7722   20.8730  263.5057   22.4380  263.5836   22.4223   -0.0000   -0.0000
  2.770  270.7396   21.8453  270.3322   22.6577  270.4649   22.6806  270.9984   22.2809  271.7623   23.9383  271.8447   23.9213   -0.0000   -0.0000
  2.780  279.5245   23.3629  279.0871   24.2190  279.2280   24.2445  279.8080   23.8395  280.6043   25.5988  280.6917   25.5802   -0.0000   -0.0000
  2.790  288.9542   25.0486  288.4834   25.9523  288.6333   25.9807  289.2651   25.5714  290.0960   27.4432  290.1891   27.4230   -0.0000   -0.0000
  2.800  299.1022   26.9283  298.5937   27.8842  298.7536   27.9159  299.4435   27.5033  300.3115   29.5002  300.4109   29.4782   -0.0000   -0.0000
  2.810  310.0535   29.0333  309.5025   30.0466  309.6735   30.0822  310.4287   29.6678  311.3363   31.8040  311.4427   31.7801   -0.0000   -0.0000
  2.820  321.9069   31.4017  321.3075   32.4782  321.4911   32.5182  322.3200   32.1041  323.2699   34.3964  323.3843   34.3703   -0.0000   -0.0000
  2.830  334.7779   34.0796  334.1233   35.2261  334.3211   35.2714  335.2335   34.8602  336.2286   37.3282  336.3521   37.2998   -0.0000   -0.0000
  2.840  348.8027   37.1242  348.0846   38.3484  348.2985   38.3999  349.3059   37.9951  350.3492   40.6619  350.4830   40.6310   -0.0000   -0.0000
  2.850  364.1423   40.6062  363.3508   41.9170  363.5830   41.9758  364.6992   41.5821  365.7937   44.4754  365.9394   44.4417   -0.0000   -0.0000
  2.860  380.9888   44.6144  380.1117   46.0223  380.3651   46.0898  381.6063   45.7134  382.7549   48.8662  382.9145   48.8294   -0.0000   -0.0000
  2.870  399.5733   49.2615  398.5957   50.7784  398.8733   50.8566  400.2594   50.5056  401.4646   53.9581  401.6403   53.9180   -0.0000   -0.0000
  2.880  420.1755   54.6918  419.0788   56.3319  419.3847   56.4231  420.9394   56.1088  422.2031   59.9100  422.3979   59.8663   -0.0000   -0.0000
  2.890  443.1374   61.0930  441.8983   62.8731  442.2373   62.9802  443.9896   62.7179  445.3124   66.9282  445.5298   66.8807   -0.0000   -0.0000
  2.900  468.8809   68.7126  467.4697   70.6523  467.8478   70.7796  469.8334   70.5899  471.2137   75.2851  471.4582   75.2337   -0.0000   -0.0000
  2.910  497.9318   77.8821  496.3100   80.0048  496.7348   80.1575  498.9980   80.0694  500.4303   85.3455  500.7077   85.2901   -0.0001   -0.0000
  2.920  530.9524   89.0535  529.0697   91.3868  529.5508   91.5723  532.1467   91.6266  533.6189   97.6067  533.9369   97.5477   -0.0007   -0.0000
  2.930  568.7866  102.8553  566.5757  105.4318  567.1251  105.6603  570.1233  105.9158  571.6122  112.7607  571.9806  112.6987   -0.0051   -0.0000
  2.940  612.5214  120.1813  609.8909  123.0393  610.5243  123.3255  614.0128  123.8677  615.4756  131.7909  615.9081  131.7278   -0.0313   -0.0000
  2.950  663.5735  142.3357  660.3962  145.5184  661.1343  145.8839  665.2243  146.8409  666.5844  156.1312  667.0994  156.0705   -0.1670   -0.0001
  2.960  723.8064  171.2760  719.9013  174.8298  720.7711  175.3070  725.6025  176.8751  726.7216  187.9311  727.3452  187.8795   -0.7733   -0.0004
  2.970  795.6834  210.0384  790.7864  214.0058  791.8234  214.6454  797.5673  217.1338  798.1925  230.5162  798.9622  230.4872   -3.1275   -0.0015
  2.980  882.4418  263.5099  876.1564  267.9101  877.4067  268.7944  884.2559  272.7046  883.9128  289.2172  884.8839  289.2370  -11.1164   -0.0056
  2.990  988.1917  339.8899  979.9066  344.6684  981.4262  345.9371  989.5475  352.1065  987.3126  372.9111  988.5680  373.0334  -34.8085   -0.0184
  3.000 1117.5530  453.5619 1106.3049  458.4609 1108.1482  460.3616 1117.5125  470.2188 1111.5079  496.9639 1113.1718  497.3032  -95.6787   -0.0535
  3.010 1273.3792  630.8519 1257.6467  635.0703 1259.8118  638.0602 1269.6549  654.0241 1255.8832  688.7957 1258.1306  689.6093 -228.6320   -0.1376
  3.020 1447.2421  921.0321 1424.7689  922.3275 1426.9836  927.2580 1434.2277  953.0124 1403.9576  997.1054 1406.9594  998.9940 -468.5556   -0.3098
  3.030 1584.2651 1410.7374 1552.6849 1403.1666 1553.6404 1411.4337 1549.2240 1450.0177 1484.6917 1497.1667 1488.1791 1501.4845 -811.9645   -0.6082
  3.040 1477.5700 2192.6942 1439.9220 2162.4351 1435.2452 2174.6777 1402.3370 2217.7117 1283.1718 2230.6054 1284.5381 2239.3297 *********   -1.0400
  3.050  673.0740 3045.5858  659.1559 2979.3775  642.5352 2987.9614  578.8801 3003.9953  454.2685 2907.7394  446.9240 2917.7186 *********   -1.5574
  3.060 -729.4389 3026.4913 -685.0576 2972.7213 -702.7003 2964.8985 -761.1632 2934.8884 -764.3308 2787.4569 -776.5245 2787.4128 *********   -2.0670
  3.070 ********* 2129.2218 ********* 2125.1342 ********* 2112.1809 ********* 2064.1153 ********* 1988.4531 ********* 1982.4564 *********   -2.4791
  3.080 ********* 1336.5976 ********* 1349.0105 ********* 1340.0859 ********* 1303.2575 ********* 1280.5142 ********* 1275.4166 -762.5902   -2.7594
  3.090 *********  860.6789 *********  871.3422 *********  865.9983 *********  842.5792 *********  839.1656 *********  835.8384 -610.3789   -2.9837
  3.100 *********  590.8229 *********  596.0799 *********  592.7004 *********  577.4547 *********  579.5404 *********  577.5410 *********   -3.4743
  3.110 *********  431.4204 *********  433.3091 *********  430.4954 *********  418.7519 *********  422.6136 *********  421.5460 *********   -4.5671
  3.120 -962.6095  291.9398 -954.2711  301.1682 -951.8547  298.9589 -939.9835  292.1718 -927.4832  298.5531 -927.0520  297.6995 *********   -5.5934
  3.130 -835.3237  211.3959 -832.8212  219.4818 -830.8166  218.3973 -821.5423  215.6497 -813.6157  220.8084 -813.2770  220.1439 -965.0652   -5.9480
  3.140 -738.6594  164.3377 -738.0809  170.1951 -736.5151  169.4956 -729.3599  168.2011 -723.8050  172.2710 -723.4964  171.7248 -132.0169   -5.9966
  3.150 -662.0321  131.1478 -662.1715  135.4751 -660.8889  134.9684 -655.1628  134.4034 -651.1225  137.6658 -650.8356  137.2229   -8.9514   -5.9999
  3.160 -599.0114  106.4985 -599.4562  109.7802 -598.3707  109.3920 -593.6804  109.2559 -590.6804  111.8922 -590.4167  111.5326   -0.3874   -6.0000
  3.170 -546.0559   87.6836 -546.6349   90.2242 -545.6938   89.9153 -541.7922   90.0456 -539.5343   92.1854 -539.2935   91.8910   -0.0143   -6.0000
  3.180 -500.8644   73.0139 -501.4980   75.0118 -500.6662   74.7586 -497.3844   75.0569 -495.6703   76.7975 -495.4507   76.5544   -0.0010   -6.0000
  3.190 -461.8111   61.3663 -462.4604   62.9562 -461.7128   62.7433 -458.9295   63.1468 -457.6224   64.5633 -457.4217   64.3607   -0.0001   -6.0000
  3.200 -427.6954   51.9686 -428.3410   53.2455 -427.6589   53.0623 -425.2843   53.5294 -424.2869   54.6803 -424.1029   54.5103   -0.0000   -6.0000
  3.210 -397.6046   44.2767 -398.2376   45.3091 -397.6067   45.1484 -395.5726   45.6508 -394.8142   46.5823 -394.6449   46.4389   -0.0000   -6.0000
  3.220 -370.8307   37.8988 -371.4477   38.7377 -370.8564   38.5940 -369.1101   39.1120 -368.5383   39.8610 -368.3818   39.7396   -0.0000   -6.0000
  3.230 -346.8136   32.5474 -347.4144   33.2313 -346.8532   33.1007 -345.3536   33.6203 -344.9288   34.2166 -344.7834   34.1135   -0.0000   -6.0000
  3.240 -325.1032   28.0079 -325.6895   28.5667 -325.1504   28.4462 -323.8650   28.9568 -323.5566   29.4248 -323.4211   29.3374   -0.0000   -6.0000
  3.250 -305.3320   24.1179 -305.9065   24.5749 -305.3824   24.4624 -304.2855   24.9560 -304.0695   25.3157 -303.9426   25.2417   -0.0000   -6.0000
  3.260 -287.1942   20.7528 -287.7608   21.1267 -287.2449   21.0203 -286.3160   21.4906 -286.1732   21.7588 -286.0541   21.6965   -0.0000   -6.0000
  3.270 -270.4311   17.8159 -270.9942   18.1220 -270.4802   18.0205 -269.7029   18.4617 -269.6175   18.6529 -269.5055   18.6010   -0.0017   -6.0000
  3.280 -254.8187   15.2320 -255.3835   15.4828 -254.8648   15.3852 -254.2263   15.7923 -254.1849   15.9191 -254.0795   15.8763   -0.0426   -6.0000
  3.290 -240.1575   12.9423 -240.7303   13.1486 -240.1998   13.0543 -239.6901   13.4219 -239.6810   13.4957 -239.5820   13.4612   -0.6843   -6.0003
  3.300 -226.2642   10.9016 -226.8525   11.0728 -226.3024   10.9815 -225.9138   11.3038 -225.9262   11.3357 -225.8337   11.3086   -7.1603   -6.0029
  3.310 -212.9632    9.0764 -213.5763    9.2208 -212.9971    9.1326 -212.7238    9.4032 -212.7471    9.4045 -212.6617    9.3840  -48.7452   -6.0208
  3.320 -200.0770    7.4438 -200.7271    7.5691 -200.1070    7.4848 -199.9449    7.6960 -199.9679    7.6798 -199.8910    7.6644 -215.9042   -6.1002
  3.330 -187.4146    5.9899 -188.1180    6.1036 -187.4417    6.0248 -187.3879    6.1677 -187.3984    6.1513 -187.3321    6.1381 -622.1811   -6.3288
  3.340 -174.7434    4.7065 -175.5242    4.8158 -174.7692    4.7460 -174.8242    4.8122 -174.8108    4.8224 -174.7560    4.8037 *********   -6.7575
  3.350 -161.7199    3.6444 -162.6143    3.7512 -161.7478    3.7027 -161.9247    3.6765 -161.8889    3.7465 -161.8343    3.7149 *********   -7.2805
  3.360 -148.0011    3.0277 -149.0536    3.1270 -148.0400    3.1237 -148.3452    2.9604 -148.2792    3.1124 -148.2194    3.0823 *********   -7.6957
  3.370 -133.1804    3.0223 -134.4607    3.1087 -133.2458    3.1807 -133.6639    2.8344 -133.5354    3.1322 -133.4872    3.1043 -586.0436   -7.9110
  3.380 -116.4638    4.0312 -118.0925    4.0770 -116.5864    4.2888 -117.0969    3.7041 -116.8871    4.2790 -116.8637    4.2363 -211.7827   -7.9888
  3.390  -96.6652    7.0615  -98.8463    6.9750  -96.9107    7.4728  -97.4681    6.5682  -97.1988    7.6646  -97.2099    7.5726 -111.7225   -8.0299
  3.400  -72.0441   14.4814  -75.1187   13.9854  -72.5618   15.1166  -73.0508   13.7858  -72.9050   15.8837  -72.9448   15.6647 -238.8257   -8.1177
  3.410  -40.6823   32.2538  -45.1178   30.5088  -41.8247   33.1463  -41.9793   31.3112  -42.8087   35.2957  -42.7678   34.7808 -603.0712   -8.3393
  3.420   -5.3983   75.2662  -10.9923   69.9516   -7.9535   76.0786   -7.2951   73.9063  -12.4192   80.3106  -11.7152   79.3777 *********   -8.7716
  3.430    0.3331  165.1741   -1.4575  153.3010   -4.5098  163.6421   -2.5227  162.0696  -17.7368  163.3742  -15.5428  163.5446 *********   -9.3996
  3.440  -96.5744  242.7660  -86.6186  233.1734  -98.2785  235.6791  -97.1332  236.5740 -106.6049  220.8380 -106.1631  222.9611 *********  -10.0753
  3.450 -198.0477  198.5767 -188.4882  199.7600 -194.1634  194.5407 -195.1654  193.7419 -190.3619  181.9110 -190.9997  182.8500 *********  -10.6229
  3.460 -220.2480  133.4416 -215.9910  136.7877 -217.0220  132.7759 -216.9316  130.7017 -210.8675  126.0660 -211.3840  126.5235 -995.0767  -10.9886
  3.470 -213.1716   93.3793 -211.3994   95.8760 -211.2362   93.5759 -210.3028   91.6410 -205.7798   89.9261 -206.2285   90.2088 -721.4388  -11.2537
  3.480 -201.0271   70.3849 -200.1718   71.9309 -199.8392   70.6471 -198.6036   68.9941 -195.3308   68.3405 -195.7463   68.5207 -770.5420  -11.5369
  3.490 -189.3913   56.7296 -188.0012   57.7495 -188.5811   56.8456 -187.0771   55.3810 -184.5386   55.1322 -185.0009   55.2055 *********  -14.4459
  3.500 -179.9269   48.4385 -179.4946   49.2373 -179.2617   48.4235 -177.8801   46.8938 -175.8667   46.8681 -176.2652   46.8624 *********  -15.0176
  3.510 -173.1640   43.3438 -172.6387   43.8419 -172.4647   43.1839 -170.7348   41.3882 -168.9815   41.5392 -169.3790   41.3990 *********  -15.7928
  3.520 -170.3225   37.8751 -169.6162   38.4368 -169.3667   37.7805 -166.6918   36.0320 -165.1852   36.5119 -165.4418   36.1807 *********  -16.6822
  3.530 -165.8366   28.0295 -165.3423   28.8463 -164.9106   28.3833 -161.5828   27.7936 -160.6299   28.4739 -160.6127   28.1900 *********  -17.4824
  3.540 -156.5937   21.0938 -156.4058   21.8186 -156.0262   21.5841 -153.1789   21.9611 -152.6159   22.4674 -152.5510   22.3457 *********  -18.0291
  3.550 -148.1639   17.9652 -148.1058   18.5281 -147.8170   18.3869 -145.5488   19.0666 -145.1425   19.4135 -145.1057   19.3589 -782.4591  -18.3167
  3.560 -141.3103   16.1727 -141.3052   16.6111 -141.0776   16.5111 -139.2014   17.2495 -138.8788   17.5000 -138.8633   17.4694 -336.6555  -18.4404
  3.570 -135.5080   14.8592 -135.5273   15.2061 -135.3403   15.1295 -133.7247   15.8601 -133.4604   16.0488 -133.4571   16.0281 -130.0950  -18.4882
  3.580 -130.3986   13.7822 -130.4302   14.0603 -130.2717   13.9991 -128.8396   14.7055 -128.6208   14.8510 -128.6240   14.8351  -48.4103  -18.5060
  3.590 -125.7822   12.8585 -125.8204   13.0834 -125.6829   13.0334 -124.3876   13.7130 -124.2056   13.8265 -124.2124   13.8131  -17.3700  -18.5124
  3.600 -121.5409   12.0505 -121.5827   12.2335 -121.4614   12.1919 -120.2728   12.8460 -120.1214   12.9346 -120.1300   12.9229   -5.8252  -18.5145
  3.610 -117.5994   11.3365 -117.6431   11.4857 -117.5345   11.4507 -116.4323   12.0814 -116.3065   12.1503 -116.3158   12.1398   -1.7958  -18.5152
  3.620 -113.9057   10.7014 -113.9505   10.8231 -113.8520   10.7931 -112.8218   11.4028 -112.7175   11.4557 -112.7270   11.4462   -0.5170  -18.5154
  3.630 -110.4221   10.1338 -110.4674   10.2329 -110.3772   10.2070 -109.4081   10.7975 -109.3220   10.8376 -109.3313   10.8288   -0.1566  -18.5154
  3.640 -107.1195    9.6250 -107.1651    9.7053 -107.0818    9.6827 -106.1656   10.2555 -106.0948   10.2852 -106.1038   10.2772   -0.0772  -18.5154
  3.650 -103.9752    9.1676 -104.0209    9.2323 -103.9433    9.2124 -103.0735    9.7689 -103.0157    9.7904 -103.0242    9.7830   -0.0825  -18.5155
  3.660 -100.9704    8.7560 -101.0162    8.8076 -100.9434    8.7898 -100.1147    9.3311 -100.0680    9.3462 -100.0758    9.3394   -0.1218  -18.5155
  3.670  -98.0896    8.3852  -98.1356    8.4259  -98.0669    8.4098  -97.2750    8.9369  -97.2376    8.9470  -97.2448    8.9409   -0.1885  -18.5156
  3.680  -95.3198    8.0513  -95.3659    8.0830  -95.3006    8.0682  -94.5420    8.5818  -94.5124    8.5885  -94.5189    8.5829   -0.2904  -18.5157
  3.690  -92.6493    7.7510  -92.6958    7.7752  -92.6335    7.7617  -91.9050    8.2623  -91.8819    8.2669  -91.8878    8.2619   -0.4421  -18.5159
  3.700  -90.0684    7.4818  -90.1152    7.5000  -90.0555    7.4873  -89.3546    7.9754  -89.3368    7.9792  -89.3420    7.9747   -0.6646  -18.5161
  3.710  -87.5681    7.2416  -87.6154    7.2549  -87.5579    7.2429  -86.8823    7.7190  -86.8688    7.7231  -86.8734    7.7192   -0.9863  -18.5165
  3.720  -85.1405    7.0287  -85.1884    7.0383  -85.1328    7.0268  -84.4807    7.4912  -84.4704    7.4967  -84.4744    7.4933   -1.4454  -18.5170
  3.730  -82.7783    6.8420  -82.8271    6.8489  -82.7731    6.8377  -82.1426    7.2907  -82.1348    7.2988  -82.1383    7.2958   -2.0913  -18.5178
  3.740  -80.4750    6.6808  -80.5247    6.6858  -80.4722    6.6748  -79.8619    7.1165  -79.8558    7.1282  -79.8587    7.1258   -2.9876  -18.5189
  3.750  -78.2244    6.5445  -78.2752    6.5486  -78.2240    6.5377  -77.6325    6.9682  -77.6273    6.9847  -77.6297    6.9828   -4.2140  -18.5204
  3.760  -76.0207    6.4333  -76.0729    6.4373  -76.0228    6.4264  -75.4489    6.8457  -75.4440    6.8682  -75.4459    6.8667   -5.8685  -18.5226
  3.770  -73.8586    6.3475  -73.9124    6.3523  -73.8632    6.3412  -73.3059    6.7494  -73.3007    6.7790  -73.3021    6.7780   -8.0692  -18.5255
  3.780  -71.7329    6.2882  -71.7885    6.2945  -71.7401    6.2831  -71.1985    6.6802  -71.1924    6.7180  -71.1934    6.7174  -10.9548  -18.5296
  3.790  -69.6388    6.2565  -69.6964    6.2652  -69.6488    6.2533  -69.1219    6.6392  -69.1143    6.6866  -69.1149    6.6865  -14.6839  -18.5350
  3.800  -67.5715    6.2546  -67.6315    6.2664  -67.5845    6.2539  -67.0716    6.6284  -67.0621    6.6867  -67.0623    6.6870  -19.4332  -18.5421
  3.810  -65.5266    6.2848  -65.5892    6.3006  -65.5429    6.2874  -65.0433    6.6503  -65.0314    6.7210  -65.0313    6.7217  -25.3929  -18.5514
  3.820  -63.4998    6.3506  -63.5655    6.3711  -63.5197    6.3571  -63.0328    6.7081  -63.0181    6.7928  -63.0176    6.7939  -32.7601  -18.5635
  3.830  -61.4872    6.4560  -61.5564    6.4822  -61.5110    6.4672  -61.0362    6.8059  -61.0184    6.9063  -61.0176    6.9078  -41.7294  -18.5788
  3.840  -59.4850    6.6062  -59.5582    6.6391  -59.5133    6.6228  -59.0501    6.9490  -59.0289    7.0670  -59.0279    7.0688  -52.4810  -18.5981
  3.850  -57.4903    6.8078  -57.5681    6.8481  -57.5236    6.8305  -57.0716    7.1436  -57.0468    7.2813  -57.0456    7.2834  -65.1667  -18.6220
  3.860  -55.5006    7.0684  -55.5837    7.1173  -55.5395    7.0980  -55.0984    7.3976  -55.0700    7.5573  -55.0685    7.5597  -79.8937  -18.6514
  3.870  -53.5146    7.3978  -53.6038    7.4563  -53.5600    7.4351  -53.1294    7.7205  -53.0976    7.9046  -53.0959    7.9072  -96.7076  -18.6869
  3.880  -51.5328    7.8074  -51.6291    7.8766  -51.5856    7.8532  -51.1653    8.1236  -51.1304    8.3351  -51.1286    8.3378 -115.5769  -18.7294
  3.890  -49.5580    8.3108  -49.6624    8.3919  -49.6193    8.3660  -49.2091    8.6205  -49.1717    8.8623  -49.1697    8.8651 -136.3776  -18.7795
  3.900  -47.5962    8.9239  -47.7102    9.0181  -47.6674    8.9892  -47.2672    9.2269  -47.2285    9.5025  -47.2264    9.5051 -158.8824  -18.8379
  3.910  -45.6587    9.6646  -45.7838    9.7733  -45.7413    9.7409  -45.3511    9.9604  -45.3126   10.2733  -45.3104   10.2758 -182.7550  -18.9051
  3.920  -43.7634   10.5523  -43.9015   10.6765  -43.8593   10.6400  -43.4791   10.8399  -43.4431   11.1939  -43.4407   11.1960 -207.5503  -18.9813
  3.930  -41.9371   11.6057  -42.0905   11.7468  -42.0486   11.7053  -41.6783   11.8837  -41.6481   12.2827  -41.6454   12.2843 -232.7220  -19.0669
  3.940  -40.2185   12.8405  -40.3897   12.9995  -40.3479   12.9520  -39.9874   13.1067  -39.9672   13.5541  -39.9640   13.5551 -257.6390  -19.1616
  3.950  -38.6590   14.2636  -38.8510   14.4414  -38.8092   14.3866  -38.4583   14.5149  -38.4534   15.0138  -38.4495   15.0139 -281.6085  -19.2650
  3.960  -37.3237   15.8657  -37.5398   16.0631  -37.4974   15.9992  -37.1554   16.0979  -37.1722   16.6501  -37.1673   16.6492 -303.9065  -19.3767
  3.970  -36.2860   17.6119  -36.5301   17.8293  -36.4860   17.7541  -36.1517   17.8198  -36.1972   18.4252  -36.1909   18.4232 -323.8139  -19.4957
  3.980  -35.6175   19.4321  -35.8936   19.6692  -35.8458   19.5803  -35.5176   19.6093  -35.5985   20.2656  -35.5903   20.2627 -340.6546  -19.6209
  3.990  -35.3686   21.2168  -35.6814   21.4731  -35.6266   21.3682  -35.3018   21.3566  -35.4236   22.0592  -35.4131   22.0556 -353.8356  -19.7509
  4.000  -35.5453   22.8252  -35.8995   23.0992  -35.8329   22.9766  -35.5084   22.9212  -35.6740   23.6637  -35.6608   23.6598 -362.8837  -19.8843
  4.010  -36.0897   24.1092  -36.4901   24.3984  -36.4058   24.2584  -36.0781   24.1561  -36.2867   24.9318  -36.2704   24.9281 -367.4797  -20.0193
  4.020  -36.8778   24.9496  -37.3289   25.2506  -37.2208   25.0953  -36.8863   24.9439  -37.1333   25.7476  -37.1141   25.7449 -367.4850  -20.1544
  4.030  -37.7420   25.2894  -38.2471   25.5980  -38.1100   25.4323  -37.7658   25.2293  -38.0440   26.0593  -38.0220   26.0580 -362.9639  -20.2878
  4.040  -38.5093   25.1479  -39.0710   25.4598  -38.9015   25.2899  -38.5449   25.0326  -38.8462   25.8913  -38.8218   25.8918 -354.1981  -20.4179
  4.050  -39.0402   24.6081  -39.6599   24.9194  -39.4573   24.7520  -39.0854   24.4368  -39.4027   25.3306  -39.3761   25.3331 -341.6971  -20.5435
  4.060  -39.2488   23.7870  -39.9277   24.0947  -39.6932   23.9358  -39.3030   23.5583  -39.6308   24.4969  -39.6025   24.5015 -326.2054  -20.6634
  4.070  -39.1032   22.8051  -39.8428   23.1074  -39.5790   22.9614  -39.1666   22.5164  -39.5022   23.5117  -39.4723   23.5184 -308.7121  -20.7768
  4.080  -38.6119   21.7660  -39.4148   22.0614  -39.1248   21.9315  -38.6849   21.4129  -39.0284   22.4785  -38.9970   22.4872 -290.4716  -20.8836
  4.090  -37.8064   20.7475  -38.6769   21.0345  -38.3636   20.9224  -37.8895   20.3239  -38.2434   21.4743  -38.2108   21.4851 -273.0553  -20.9839
  4.100  -36.7271   19.8025  -37.6711   20.0784  -37.3369   19.9849  -36.8202   19.3003  -37.1898   20.5508  -37.1560   20.5637 -258.4564  -21.0789
  4.110  -35.4139   18.9637  -36.4390   19.2240  -36.0858   19.1492  -35.5157   18.3726  -35.9095   19.7392  -35.8745   19.7541 -249.2579  -21.1705
  4.120  -33.9017   18.2498  -35.0162   18.4861  -34.6452   18.4299  -34.0087   17.5569  -34.4386   19.0557  -34.4026   19.0729 -248.8087  -21.2620
  4.130  -32.2183   17.6702  -33.4306   17.8692  -33.0424   17.8315  -32.3241   16.8602  -32.8060   18.5069  -32.7692   18.5263 -261.2402  -21.3580
  4.140  -30.3857   17.2294  -31.7008   17.3706  -31.2955   17.3509  -30.4780   16.2843  -31.0334   18.0924  -30.9962   18.1143 -291.0845  -21.4649
  4.150  -28.4212   16.9277  -29.8358   16.9821  -29.4131   16.9801  -28.4791   15.8289  -29.1351   17.8069  -29.0982   17.8311 -342.5290  -21.5908
  4.160  -26.3400   16.7608  -27.8326   16.6925  -27.3916   16.7075  -26.3285   15.4932  -27.1183   17.6393  -27.0826   17.6653 -419.4144  -21.7449
  4.170  -24.1553   16.7128  -25.6721   16.4892  -25.2114   16.5201  -24.0204   15.2775  -24.9797   17.5698  -24.9466   17.5962 -528.3603  -21.9391
  4.180  -21.8689   16.7429  -23.3132   16.3663  -22.8296   16.4111  -21.5425   15.1845  -22.6942   17.5658  -22.6646   17.5892 -684.2287  -22.1906
  4.190  -19.4304   16.7773  -20.6893   16.3397  -20.1773   16.3960  -18.8750   15.2199  -20.1861   17.5879  -20.1580   17.6024 -904.5827  -22.5230
  4.200  -16.6721   16.7740  -17.7209   16.4700  -17.1701   16.5361  -15.9899   15.3938  -17.2936   17.6490  -17.2587   17.6501 *********  -22.9552
  4.210  -13.3798   16.8786  -14.3495   16.8698  -13.7447   16.9483  -12.8500   15.7234  -13.8416   17.9254  -13.7884   17.9167 *********  -23.4772
  4.220   -9.5300   17.3594  -10.5655   17.6772   -9.8887   17.7785   -9.4083   16.2346   -9.8232   18.6956   -9.7462   18.6876 *********  -24.0406
  4.230   -5.2349   18.3463   -6.4086   19.0222   -5.6443   19.1640   -5.6047   16.9636   -5.3692   20.1356   -5.2699   20.1390 *********  -24.5940
  4.240   -0.5195   19.8575   -1.9318   20.9861   -1.0661   21.1895   -1.3605   17.9617   -0.5692   22.3045   -0.4537   22.3246 *********  -25.1344
  4.250    4.7010   21.9476    2.8683   23.6412    3.8509   23.9330    3.4282   19.3038    4.5913   25.2713    4.7187   25.3093 *********  -25.6944
  4.260   10.5686   24.7646    8.0388   27.1242    9.1558   27.5401    8.8986   21.1010   10.1829   29.2039   10.3207   29.2603 *********  -26.2571
  4.270   17.2583   28.5758   13.6301   31.6728   14.9010   32.2637   15.2352   23.5216   16.2794   34.4093   16.4275   34.4857 *********  -26.7357
  4.280   24.9679   33.8212   19.6518   37.6569   21.0959   38.4979   22.6876   26.8284   22.9049   41.3806   23.0642   41.4806 -921.4344  -27.0744
  4.290   33.8888   41.2175   26.0057   45.6150   27.6341   46.8205   31.5977   31.4470   29.9453   50.8728   30.1158   51.0026 -626.2506  -27.3045
  4.300   44.1068   51.9489   32.3646   56.2862   34.1600   58.0316   42.4315   38.0984   36.9540   64.0084   37.1345   64.1774 -507.2674  -27.4909
  4.310   55.2867   67.9797   37.9627   70.5858   39.8293   73.1351   55.7990   48.0705   42.7241   82.3576   42.9090   82.5793 -518.1527  -27.6813
  4.320   65.7736   92.4041   41.3153   89.4041   42.9674   93.1216   72.3736   63.8030   44.3896  107.7357   44.5651  108.0279 -611.7882  -27.9062
  4.330   70.4195  129.0271   40.1028  113.1292   40.8499  118.3963   92.3027   90.1880   35.9173  140.7635   36.0524  141.1452 -777.0374  -28.1917
  4.340   57.7134  178.1657   31.5662  141.4598   30.0260  148.2739  112.2868  137.2096    7.7445  175.8780    7.7782  176.3553 *********  -28.5636
  4.350   14.2348  227.5024   11.2307  174.9096    5.4159  181.7571  113.0659  221.3211  -43.7257  194.4000  -43.8856  194.9168 *********  -29.0339
  4.360  -62.8642  253.3933  -36.4631  208.2390  -46.6919  210.5942   31.3833  331.2790  -97.7575  179.1062  -98.1306  179.4828 *********  -29.5800
  4.370 -150.9716  220.1597 -112.0625  198.4570 -120.3776  193.7839 -143.7601  331.7198 -129.2743  142.9789 -129.6449  143.1090 *********  -30.1454
  4.380 -185.4358  146.9446 -151.2519  143.7990 -154.1759  137.7567 -228.2471  212.6594 -138.7199  107.5402 -138.9648  107.5884 *********  -30.6792
  4.390 -177.9472   93.0778 -152.6280   98.4258 -152.8237   94.0431 -221.1431  121.4116 -136.6451   80.4209 -136.8264   80.4743 *********  -31.1809
  4.400 -161.1966   61.9223 -143.1851   70.1131 -142.5328   67.2625 -194.6438   72.8769 -130.1687   61.1209 -130.3274   61.1812 *********  -31.6967
  4.410 -145.3404   43.6867 -132.4962   52.3116 -131.6829   50.4574 -170.2917   47.1519 -122.5628   47.5176 -122.7113   47.5778 *********  -32.2433
  4.420 -132.0609   32.3902 -122.7480   40.5362 -121.9867   39.2986 -150.9032   32.5865 -115.1269   37.8093 -115.2684   37.8656 *********  -32.7458
  4.430 -121.1738   24.9952 -114.2792   32.3765 -113.6234   31.5252 -135.7359   23.7549 -108.3088   30.7424 -108.4442   30.7936 -979.2518  -33.1057
  4.440 -112.2087   19.9232 -106.9954   26.5054 -106.4471   25.9024 -123.7340   18.0766 -102.2111   25.4872 -102.3404   25.5335 -548.8262  -33.3074
  4.450 -104.7394   16.3081 -100.7182   22.1494 -100.2643   21.7107 -114.0612   14.2450  -96.8034   21.4975  -96.9271   21.5395 -268.7659  -33.4062
  4.460  -98.4332   13.6475  -95.2745   18.8338  -94.8994   18.5070 -106.1176   11.5547  -92.0120   18.4096  -92.1304   18.4480 -134.4952  -33.4556
  4.470  -93.0392   11.6363  -90.5171   16.2550  -90.2064   16.0062  -99.4792    9.6023  -87.7546   15.9776  -87.8682   16.0130  -73.2287  -33.4825
  4.480  -88.3696   10.0810  -86.3258   14.2115  -86.0675   14.0184  -93.8442    8.1457  -83.9544   14.0315  -84.0636   14.0645  -41.4542  -33.4977
  4.490  -84.2825    8.8544  -82.6044   12.5658  -82.3887   12.4133  -88.9945    7.0331  -80.5442   12.4520  -80.6495   12.4830  -23.2376  -33.5063
  4.500  -80.6698    7.8706  -79.2755   11.2216  -79.0945   11.0990  -84.7693    6.1660  -77.4668   11.1535  -77.5686   11.1830  -12.5925  -33.5109
  4.510  -77.4477    7.0697  -76.2769   10.1095  -76.1243   10.0096  -81.0484    5.4781  -74.6744   10.0737  -74.7729   10.1018   -6.5162  -33.5133
  4.520  -74.5510    6.4092  -73.5585    9.1793  -73.4292    9.0965  -77.7400    4.9241  -72.1270    9.1662  -72.2226    9.1934   -3.1975  -33.5145
  4.530  -71.9280    5.8581  -71.0792    8.3933  -70.9692    8.3237  -74.7733    4.4719  -69.7912    8.3966  -69.8843    8.4230   -1.4824  -33.5150
  4.540  -69.5372    5.3936  -68.8057    7.7231  -68.7116    7.6639  -72.0927    4.0982  -67.6391    7.7381  -67.7299    7.7640   -0.6482  -33.5152
  4.550  -67.3451    4.9985  -66.7102    7.1471  -66.6294    7.0959  -69.6539    3.7862  -65.6474    7.1704  -65.7361    7.1959   -0.2671  -33.5153
  4.560  -65.3244    4.6595  -64.7697    6.6482  -64.7000    6.6034  -67.4213    3.5232  -63.7963    6.6776  -63.8831    6.7028   -0.1037  -33.5154
  4.570  -63.4524    4.3667  -62.9651    6.2134  -62.9045    6.1737  -65.3661    3.2996  -62.0690    6.2469  -62.1542    6.2720   -0.0379  -33.5154
  4.580  -61.7105    4.1119  -61.2800    5.8320  -61.2271    5.7964  -63.4646    3.1081  -60.4515    5.8685  -60.5352    5.8935   -0.0131  -33.5154
  4.590  -60.0828    3.8889  -59.7006    5.4957  -59.6543    5.4633  -61.6969    2.9429  -58.9314    5.5341  -59.0138    5.5592   -0.0042  -33.5154
  4.600  -58.5561    3.6927  -58.2153    5.1977  -58.1743    5.1679  -60.0468    2.7996  -57.4984    5.2372  -57.5797    5.2624   -0.0013  -33.5154
  4.610  -57.1190    3.5192  -56.8140    4.9323  -56.7775    4.9046  -58.5004    2.6745  -56.1434    4.9724  -56.2237    4.9979   -0.0004  -33.5154
  4.620  -55.7620    3.3652  -55.4880    4.6951  -55.4551    4.6691  -57.0459    2.5649  -54.8586    4.7354  -54.9381    4.7611   -0.0001  -33.5154
  4.630  -54.4766    3.2279  -54.2296    4.4822  -54.1998    4.4575  -55.6732    2.4684  -53.6371    4.5224  -53.7159    4.5485   -0.0000  -33.5154
  4.640  -53.2557    3.1051  -53.0324    4.2906  -53.0050    4.2669  -54.3739    2.3832  -52.4729    4.3304  -52.5512    4.3568   -0.0000  -33.5154
  4.650  -52.0930    2.9949  -51.8906    4.1175  -51.8652    4.0946  -53.1404    2.3077  -51.3609    4.1567  -51.4386    4.1836   -0.0000  -33.5154
  4.660  -50.9830    2.8959  -50.7991    3.9607  -50.7752    3.9385  -51.9662    2.2407  -50.2962    3.9993  -50.3736    4.0267   -0.0000  -33.5154
  4.670  -49.9208    2.8066  -49.7534    3.8184  -49.7306    3.7967  -50.8457    2.1811  -49.2748    3.8562  -49.3519    3.8842   -0.0000  -33.5154
  4.680  -48.9022    2.7261  -48.7495    3.6890  -48.7276    3.6676  -49.7740    2.1280  -48.2930    3.7259  -48.3699    3.7545   -0.0000  -33.5154
  4.690  -47.9234    2.6533  -47.7840    3.5711  -47.7626    3.5499  -48.7466    2.0808  -47.3475    3.6071  -47.4244    3.6363   -0.0000  -33.5154
  4.700  -46.9811    2.5874  -46.8537    3.4636  -46.8325    3.4424  -47.7596    2.0387  -46.4353    3.4985  -46.5123    3.5285   -0.0000  -33.5154
  4.710  -46.0722    2.5279  -45.9556    3.3653  -45.9344    3.3442  -46.8096    2.0012  -45.5539    3.3993  -45.6310    3.4300   -0.0000  -33.5154
  4.720  -45.1940    2.4741  -45.0873    3.2755  -45.0658    3.2543  -45.8936    1.9680  -44.7007    3.3085  -44.7781    3.3399   -0.0000  -33.5154
  4.730  -44.3441    2.4255  -44.2464    3.1934  -44.2245    3.1721  -45.0086    1.9387  -43.8737    3.2253  -43.9514    3.2576   -0.0000  -33.5154
  4.740  -43.5202    2.3817  -43.4309    3.1183  -43.4083    3.0968  -44.1523    1.9128  -43.0708    3.1492  -43.1489    3.1824   -0.0000  -33.5154
  4.750  -42.7204    2.3423  -42.6387    3.0497  -42.6153    3.0279  -43.3224    1.8903  -42.2903    3.0795  -42.3689    3.1136   -0.0000  -33.5154
  4.760  -41.9429    2.3070  -41.8682    2.9870  -41.8439    2.9649  -42.5167    1.8707  -41.5304    3.0157  -41.6096    3.0509   -0.0000  -33.5154
  4.770  -41.1859    2.2755  -41.1178    2.9298  -41.0923    2.9074  -41.7335    1.8540  -40.7897    2.9575  -40.8696    2.9937   -0.0000  -33.5154
  4.780  -40.4479    2.2477  -40.3860    2.8778  -40.3591    2.8550  -40.9711    1.8400  -40.0668    2.9044  -40.1474    2.9417   -0.0000  -33.5154
  4.790  -39.7275    2.2232  -39.6713    2.8306  -39.6430    2.8074  -40.2277    1.8285  -39.3603    2.8562  -39.4418    2.8946   -0.0000  -33.5154
  4.800  -39.0234    2.2019  -38.9727    2.7879  -38.9428    2.7642  -39.5021    1.8195  -38.6690    2.8125  -38.7515    2.8521   -0.0000  -33.5154
  4.810  -38.3344    2.1837  -38.2888    2.7495  -38.2572    2.7253  -38.7929    1.8128  -37.9919    2.7730  -38.0754    2.8139   -0.0000  -33.5154
  4.820  -37.6593    2.1685  -37.6186    2.7152  -37.5851    2.6904  -38.0988    1.8083  -37.3278    2.7376  -37.4125    2.7798   -0.0000  -33.5154
  4.830  -36.9971    2.1561  -36.9611    2.6847  -36.9255    2.6594  -37.4187    1.8061  -36.6758    2.7061  -36.7618    2.7497   -0.0000  -33.5154
  4.840  -36.3469    2.1465  -36.3154    2.6580  -36.2775    2.6321  -36.7514    1.8060  -36.0350    2.6783  -36.1224    2.7233   -0.0000  -33.5154
  4.850  -35.7076    2.1396  -35.6804    2.6349  -35.6402    2.6083  -36.0960    1.8081  -35.4045    2.6541  -35.4933    2.7006   -0.0000  -33.5154
  4.860  -35.0783    2.1354  -35.0553    2.6153  -35.0126    2.5880  -35.4516    1.8124  -34.7834    2.6334  -34.8738    2.6815   -0.0001  -33.5154
  4.870  -34.4584    2.1339  -34.4394    2.5990  -34.3941    2.5711  -34.8171    1.8188  -34.1709    2.6161  -34.2631    2.6658   -0.0001  -33.5154
  4.880  -33.8468    2.1350  -33.8318    2.5862  -33.7837    2.5575  -34.1918    1.8273  -33.5663    2.6021  -33.6604    2.6536   -0.0003  -33.5154
  4.890  -33.2430    2.1388  -33.2318    2.5766  -33.1807    2.5471  -33.5749    1.8381  -32.9688    2.5914  -33.0649    2.6448   -0.0005  -33.5154
  4.900  -32.6460    2.1453  -32.6387    2.5703  -32.5844    2.5400  -32.9654    1.8511  -32.3778    2.5839  -32.4761    2.6392   -0.0011  -33.5154
  4.910  -32.0553    2.1546  -32.0518    2.5674  -31.9941    2.5362  -32.3627    1.8664  -31.7926    2.5797  -31.8931    2.6371   -0.0021  -33.5154
  4.920  -31.4702    2.1666  -31.4704    2.5677  -31.4092    2.5356  -31.7661    1.8840  -31.2124    2.5788  -31.3154    2.6383   -0.0041  -33.5154
  4.930  -30.8898    2.1815  -30.8938    2.5713  -30.8288    2.5384  -31.1747    1.9041  -30.6366    2.5812  -30.7423    2.6430   -0.0079  -33.5154
  4.940  -30.3137    2.1993  -30.3214    2.5784  -30.2525    2.5444  -30.5880    1.9268  -30.0646    2.5869  -30.1732    2.6511   -0.0149  -33.5154
  4.950  -29.7412    2.2202  -29.7526    2.5890  -29.6794    2.5540  -30.0052    1.9521  -29.4958    2.5960  -29.6074    2.6627   -0.0276  -33.5154
  4.960  -29.1715    2.2444  -29.1867    2.6031  -29.1091    2.5670  -29.4256    1.9803  -28.9294    2.6086  -29.0443    2.6781   -0.0501  -33.5154
  4.970  -28.6041    2.2719  -28.6231    2.6210  -28.5408    2.5838  -28.8486    2.0114  -28.3649    2.6249  -28.4833    2.6972   -0.0895  -33.5155
  4.980  -28.0383    2.3029  -28.0612    2.6427  -27.9739    2.6043  -28.2735    2.0456  -27.8017    2.6450  -27.9238    2.7202   -0.1570  -33.5155
  4.990  -27.4734    2.3377  -27.5004    2.6685  -27.4077    2.6289  -27.6996    2.0832  -27.2390    2.6689  -27.3651    2.7474   -0.2707  -33.5156
  5.000  -26.9089    2.3766  -26.9399    2.6985  -26.8417    2.6576  -27.1263    2.1244  -26.6763    2.6970  -26.8067    2.7789   -0.4588  -33.5158
  5.010  -26.3441    2.4196  -26.3792    2.7330  -26.2750    2.6908  -26.5527    2.1694  -26.1128    2.7295  -26.2479    2.8150   -0.7640  -33.5161
  5.020  -25.7783    2.4673  -25.8177    2.7724  -25.7071    2.7286  -25.9783    2.2184  -25.5479    2.7665  -25.6880    2.8559   -1.2504  -33.5165
  5.030  -25.2108    2.5199  -25.2545    2.8168  -25.1373    2.7716  -25.4024    2.2720  -24.9809    2.8085  -25.1263    2.9020   -2.0111  -33.5173
  5.040  -24.6410    2.5778  -24.6892    2.8668  -24.5647    2.8199  -24.8241    2.3303  -24.4111    2.8558  -24.5623    2.9536   -3.1789  -33.5184
  5.050  -24.0681    2.6416  -24.1210    2.9227  -23.9888    2.8741  -24.2427    2.3939  -23.8377    2.9087  -23.9951    3.0113   -4.9385  -33.5203
  5.060  -23.4914    2.7117  -23.5491    2.9851  -23.4088    2.9347  -23.6575    2.4632  -23.2599    2.9677  -23.4241    3.0754   -7.5406  -33.5230
  5.070  -22.9101    2.7887  -22.9728    3.0545  -22.8238    3.0021  -23.0676    2.5387  -22.6771    3.0334  -22.8485    3.1465  -11.3164  -33.5272
  5.080  -22.3236    2.8734  -22.3915    3.1316  -22.2331    3.0772  -22.4721    2.6211  -22.0882    3.1063  -22.2676    3.2254  -16.6927  -33.5333
  5.090  -21.7309    2.9665  -21.8042    3.2172  -21.6358    3.1605  -21.8704    2.7112  -21.4926    3.1872  -21.6805    3.3127  -24.2033  -33.5422
  5.100  -21.1314    3.0690  -21.2103    3.3122  -21.0311    3.2531  -21.2613    2.8096  -20.8892    3.2769  -21.0865    3.4093  -34.4962  -33.5549
  5.110  -20.5243    3.1820  -20.6089    3.4177  -20.4182    3.3559  -20.6440    2.9175  -20.2771    3.3762  -20.4846    3.5162  -48.3320  -33.5727
  5.120  -19.9087    3.3066  -19.9993    3.5347  -19.7961    3.4701  -20.0176    3.0358  -19.6554    3.4864  -19.8742    3.6347  -66.5714  -33.5971
  5.130  -19.2839    3.4444  -19.3808    3.6649  -19.1641    3.5971  -19.3811    3.1658  -19.0231    3.6085  -19.2542    3.7659  -90.1483  -33.6303
  5.140  -18.6491    3.5971  -18.7526    3.8098  -18.5212    3.7385  -18.7335    3.3091  -18.3792    3.7442  -18.6239    3.9117 -120.0259  -33.6744
  5.150  -18.0040    3.7665  -18.1141    3.9714  -17.8669    3.8961  -18.0739    3.4674  -17.7228    3.8951  -17.9825    4.0738 -157.1367  -33.7321
  5.160  -17.3479    3.9550  -17.4649    4.1520  -17.2004    4.0722  -17.4014    3.6425  -17.0529    4.0632  -17.3294    4.2544 -202.3083  -33.8065
  5.170  -16.6809    4.1653  -16.8049    4.3542  -16.5214    4.2693  -16.7153    3.8370  -16.3687    4.2508  -16.6641    4.4561 -256.1801  -33.9006
  5.180  -16.0031    4.4003  -16.1343    4.5811  -15.8300    4.4902  -16.0150    4.0535  -15.6698    4.4606  -15.9864    4.6819 -319.1231  -34.0179
  5.190  -15.3154    4.6636  -15.4539    4.8362  -15.1265    4.7383  -15.3004    4.2950  -14.9557    4.6958  -15.2965    4.9353 -391.1777  -34.1616
  5.200  -14.6197    4.9588  -14.7655    5.1234  -14.4123    5.0171  -14.5718    4.5651  -14.2267    4.9597  -14.5954    5.2202 -472.0339  -34.3351
  5.210  -13.9189    5.2900  -14.0719    5.4469  -13.6898    5.3306  -13.8302    4.8676  -13.4837    5.2563  -13.8850    5.5412 -561.0792  -34.5413
  5.220  -13.2175    5.6611  -13.3779    5.8110  -12.9626    5.6822  -13.0777    5.2064  -12.7285    5.5896  -13.1684    5.9030 -657.5365  -34.7829
  5.230  -12.5225    6.0752  -12.6902    6.2193  -12.2365    6.0751  -12.3175    5.5853  -11.9643    5.9633  -12.4508    6.3105 -760.6923  -35.0625
  5.240  -11.8428    6.5337  -12.0184    6.6738  -11.5190    6.5104  -11.5546    6.0073  -11.1955    6.3806  -11.7397    6.7677 -870.1652  -35.3823
  5.250  -11.1904    7.0345  -11.3749    7.1733  -10.8198    6.9859  -10.7950    6.4738  -10.4279    6.8430  -11.0453    7.2771 -986.0903  -35.7446
  5.260  -10.5784    7.5703  -10.7744    7.7113  -10.1490    7.4945  -10.0460    6.9833   -9.6680    7.3492  -10.3809    7.8380 *********  -36.1522
  5.270  -10.0200    8.1258  -10.2317    8.2732   -9.5146    8.0216   -9.3139    7.5306   -8.9213    7.8946   -9.7618    8.4446 *********  -36.6077
  5.280   -9.5234    8.6761   -9.7577    8.8345   -8.9173    8.5453   -8.6014    8.1068   -8.1892    8.4712   -9.2047    9.0841 *********  -37.1134
  5.290   -9.0862    9.1875   -9.3540    9.3611   -8.3438    9.0400   -7.9057    8.7023   -7.4667    9.0715   -8.7257    9.7351 *********  -37.6704
  5.300   -8.6894    9.6208   -9.0070    9.8119   -7.7623    9.4860   -7.2180    9.3115   -6.7429    9.6946   -8.3388   10.3631 *********  -38.2770
  5.310   -8.2908    9.9383   -8.6813   10.1434   -7.1261    9.8858   -6.5311    9.9370   -6.0106   10.3526   -8.0507   10.9116 *********  -38.9268
  5.320   -7.8183   10.1158   -8.3102   10.3190   -6.3952   10.2765   -5.8492   10.5813   -5.2833   11.0621   -7.8337   11.2896 *********  -39.6084
  5.330   -7.1682   10.1732   -7.7871   10.3384   -5.5719   10.7153   -5.1816   11.2260   -4.5981   11.8111   -7.5680   11.3991 *********  -40.3050
  5.340   -6.2529   10.2153   -7.0033   10.2870   -4.7049   11.2211   -4.5075   11.8325   -3.9663   12.5352   -7.0318   11.2529 *********  -40.9962
  5.350   -5.0934   10.3836   -5.9429   10.3087   -3.8169   11.7443   -3.7673   12.3856   -3.3228   13.1701   -6.0606   11.0538 *********  -41.6611
  5.360   -3.7847   10.7281   -4.6782   10.4879   -2.8484   12.2391   -2.8978   12.9094   -2.5624   13.7205   -4.6893   11.0424 *********  -42.2813
  5.370   -2.3670   11.2222   -3.2633   10.8336   -1.7107   12.7329   -1.8482   13.4563   -1.6037   14.2551   -3.0573   11.3357 *********  -42.8434
  5.380   -0.8206   11.8615   -1.7084   11.3500   -0.3514   13.3072   -0.5907   14.0997   -0.4115   14.8691   -1.2775   11.9489 *********  -43.3405
  5.390    0.8755   12.6816   -0.0130   12.0614    1.2352   14.0520    0.8732   14.9186    1.0095   15.6555    0.5903   12.8680 *********  -43.7718
  5.400    2.7234   13.7340    1.8172   13.0022    3.0278   15.0430    2.5210   15.9832    2.6304   16.6927    2.5203   14.0862 *********  -44.1416
  5.410    4.7120   15.0707    3.7724   14.2089    4.9976   16.3415    4.3209   17.3533    4.4132   18.0442    4.5025   15.6132 -858.3021  -44.4570
  5.420    6.8258   16.7455    5.8427   15.7225    7.1174   18.0055    6.2394   19.0851    6.3187   19.7673    6.5308   17.4779 -733.6133  -44.7266
  5.430    9.0469   18.8202    8.0179   17.5933    9.3612   20.1001    8.2409   21.2392    8.3067   21.9228    8.5942   19.7279 -632.8032  -44.9592
  5.440   11.3501   21.3723   10.2839   19.8872   11.6974   22.7075   10.2820   23.8885   10.3293   24.5824   10.6694   22.4304 -554.8000  -45.1631
  5.450   13.6945   24.5007   12.6151   22.6904   14.0778   25.9332   12.3013   27.1222   12.3206   27.8333   12.7123   25.6714 -497.9133  -45.3461
  5.460   16.0099   28.3297   14.9642   26.1138   16.4218   29.9103   14.2053   31.0466   14.1826   31.7782   14.6465   29.5557 -460.2990  -45.5152
  5.470   18.1766   33.0094   17.2467   30.2954   18.5936   34.7993   15.8505   35.7812   15.7671   36.5302   16.3476   34.2025 -439.9836  -45.6769
  5.480   19.9967   38.7088   19.3172   35.4000   20.3693   40.7786   17.0187   41.4449   16.8534   42.1975   17.6223   39.7351 -434.6874  -45.8367
  5.490   21.1552   45.5932   20.9356   41.6072   21.3934   48.0162   17.3900   48.1270   17.1247   48.8535   18.1812   46.2579 -441.6527  -45.9990
  5.500   21.1731   53.7691   21.7204   49.0796   21.1303   56.6028   16.5183   55.8310   16.1508   56.4830   17.6103   53.8088 -457.5905  -46.1671
  5.510   19.3741   63.1740   21.0976   57.8854   18.8362   66.4223   13.8294   64.3799   13.3930   64.8990   15.3557   62.2742 -478.7844  -46.3431
  5.520   14.9167   73.3916   18.2777   67.8486   13.6178   76.9460    8.6831   73.2823    8.2634   73.6312   10.7578   71.2525 -501.3300  -46.5273
  5.530    6.9980   83.4289   12.3473   78.3156    4.6892   87.0071    0.5631   81.6000    0.2813   81.8174    3.2117   79.8905 -521.4656  -46.7189
  5.540   -4.6819   91.6327    2.6078   87.9345   -8.0969   94.7732  -10.5666   87.9525  -10.6354   88.1880   -7.4735   86.8229 -535.9319  -46.9159
  5.550  -19.3358   96.0705  -10.8088   94.7451  -23.6616   98.2545  -23.8746   90.8653  -23.8090   91.3114  -20.6125   90.4682 -542.2969  -47.1152
  5.560  -34.9451   95.4589  -26.4313   96.9033  -39.6901   96.3417  -37.6397   89.4702  -37.6679   90.1974  -34.5162   89.7717 -539.1882  -47.3133
  5.570  -49.0280   89.9925  -41.7617   93.7689  -53.6002   89.5719  -49.8795   84.0688  -50.2109   84.9407  -47.1033   84.8910 -526.3875  -47.5068
  5.580  -59.8246   81.2146  -54.4679   86.3455  -63.7802   79.7834  -59.2325   75.9775  -59.9039   76.7597  -56.8732   77.1096 -504.7704  -47.6923
  5.590  -66.8555   71.0714  -63.4112   76.5829  -70.0041   69.0272  -65.3518   66.7950  -66.2448   67.3182  -63.3834   68.0700 -476.0988  -47.8672
  5.600  -70.6128   61.0763  -68.7013   66.3204  -72.9660   58.7634  -68.6576   57.7656  -69.6105   57.9827  -67.0137   59.0772 -442.7030  -48.0299
  5.610  -71.9597   52.0601  -71.1150   56.7352  -73.6291   49.7122  -69.8697   49.5841  -70.7573   49.5341  -68.4776   50.8753 -407.1118  -48.1795
  5.620  -71.7196   44.3174  -71.5459   48.3555  -72.8406   42.0686  -69.6812   42.5071  -70.4329   42.2613  -68.4763   43.7546 -371.6908  -48.3161
  5.630  -70.5212   37.8379  -70.7352   41.2911  -71.2167   35.7551  -68.6303   36.5355  -69.2182   36.1650  -67.5611   37.7377 -338.3506  -48.4405
  5.640  -68.7936   32.4794  -69.2132   35.4459  -69.1627   30.5905  -67.0904   31.5544  -67.5119   31.1181  -66.1203   32.7230 -308.3618  -48.5538
  5.650  -66.8108   28.0632  -67.3302   30.6482  -66.9299   26.3771  -65.3044   27.4137  -65.5699   26.9574  -64.4120   28.5673 -282.2946  -48.6575
  5.660  -64.7397   24.4184  -65.3075   26.7154  -64.6687   22.9356  -63.4231   23.9662  -63.5495   23.5256  -62.6017   25.1249 -260.0747  -48.7531
  5.670  -62.6786   21.3974  -63.2795   23.4790  -62.4674   20.1152  -61.5362   21.0832  -61.5449   20.6861  -60.7926   22.2623 -241.1283  -48.8417
  5.680  -60.6824   18.8790  -61.3220   20.7925  -60.3756   17.7912  -59.6941   18.6578  -59.6107   18.3244  -59.0446   19.8623 -224.5769  -48.9243
  5.690  -58.7796   16.7657  -59.4699   18.5338  -58.4186   15.8606  -57.9232   16.6046  -57.7761   16.3465  -57.3860   17.8257 -209.4423  -49.0012
  5.700  -56.9828   14.9801  -57.7303   16.6068  -56.6036   14.2388  -56.2360   14.8567  -56.0534   14.6754  -55.8229   16.0730 -194.8259  -49.0728
  5.710  -55.2954   13.4610  -56.0951   14.9420  -54.9252   12.8585  -54.6376   13.3615  -54.4433   13.2494  -54.3480   14.5464 -180.0395  -49.1390
  5.720  -53.7151   12.1599  -54.5523   13.4921  -53.3709   11.6689  -53.1295   12.0766  -52.9400   12.0210  -52.9507   13.2064 -164.6762  -49.1995
  5.730  -52.2370   11.0384  -53.0924   12.2249  -51.9262   10.6337  -51.7105   10.9675  -51.5348   10.9544  -51.6228   12.0265 -148.6228  -49.2541
  5.740  -50.8547   10.0659  -51.7098   11.1159  -50.5782    9.7266  -50.3777   10.0054  -50.2190   10.0223  -50.3597   10.9865 -132.0237  -49.3026
  5.750  -49.5612    9.2177  -50.4014   10.1446  -49.3166    8.9281  -49.1267    9.1664  -48.9848    9.2036  -49.1591   10.0695 -115.2129  -49.3450
  5.760  -48.3497    8.4740  -49.1647    9.2925  -48.1330    8.2227  -47.9524    8.4308  -47.8255    8.4814  -48.0195    9.2600  -98.6316  -49.3812
  5.770  -47.2136    7.8186  -47.9970    8.5432  -47.0206    7.5973  -46.8491    7.7825  -46.7348    7.8418  -46.9390    8.5440  -82.7457  -49.4116
  5.780  -46.1466    7.2383  -46.8951    7.8821  -45.9736    7.0413  -45.8115    7.2084  -45.7075    7.2733  -45.9155    7.9089  -67.9773  -49.4366
  5.790  -45.1429    6.7222  -45.8552    7.2968  -44.9866    6.5452  -44.8343    6.6975  -44.7385    6.7661  -44.9460    7.3438  -54.6563  -49.4567
  5.800  -44.1972    6.2613  -44.8735    6.7766  -44.0549    6.1013  -43.9125    6.2409  -43.8233    6.3118  -44.0277    6.8392  -42.9941  -49.4725
  5.810  -43.3047    5.8481  -43.9459    6.3125  -43.1743    5.7027  -43.0417    5.8312  -42.9577    5.9037  -43.1573    6.3871  -33.0792  -49.4847
  5.820  -42.4610    5.4761  -43.0687    5.8968  -42.3408    5.3435  -42.2176    5.4623  -42.1378    5.5357  -42.3316    5.9805  -24.8882  -49.4938
  5.830  -41.6621    5.1402  -42.2379    5.5230  -41.5506    5.0190  -41.4366    5.1287  -41.3601    5.2029  -41.5476    5.6136  -18.3091  -49.5005
  5.840  -40.9044    4.8359  -41.4503    5.1858  -40.8005    4.7248  -40.6951    4.8263  -40.6213    4.9009  -40.8023    5.2815  -13.1685  -49.5054
  5.850  -40.1846    4.5592  -40.7025    4.8805  -40.0874    4.4574  -39.9902    4.5511  -39.9186    4.6261  -40.0930    4.9798   -9.2590  -49.5088
  5.860  -39.4999    4.3070  -39.9915    4.6033  -39.4085    4.2135  -39.3190    4.3001  -39.2492    4.3753  -39.4171    4.7050   -6.3641  -49.5111
  5.870  -38.8474    4.0765  -39.3146    4.3507  -38.7613    3.9906  -38.6789    4.0704  -38.6106    4.1458  -38.7722    4.4539   -4.2759  -49.5127
  5.880  -38.2249    3.8651  -38.6693    4.1199  -38.1435    3.7862  -38.0678    3.8597  -38.0007    3.9353  -38.1562    4.2239   -2.8083  -49.5137
  5.890  -37.6301    3.6709  -38.0532    3.9084  -37.5530    3.5984  -37.4834    3.6660  -37.4175    3.7417  -37.5671    4.0127   -1.8028  -49.5144
  5.900  -37.0610    3.4920  -37.4643    3.7141  -36.9878    3.4254  -36.9239    3.4874  -36.8590    3.5632  -37.0030    3.8182   -1.1312  -49.5148
  5.910  -36.5158    3.3269  -36.9007    3.5353  -36.4462    3.2658  -36.3876    3.3225  -36.3235    3.3983  -36.4622    3.6388   -0.6938  -49.5150
  5.920  -35.9930    3.1741  -36.3606    3.3702  -35.9266    3.1180  -35.8728    3.1698  -35.8095    3.2456  -35.9431    3.4728   -0.4160  -49.5152
  5.930  -35.4909    3.0325  -35.8424    3.2175  -35.4275    2.9810  -35.3783    3.0281  -35.3157    3.1040  -35.4444    3.3189   -0.2437  -49.5153
  5.940  -35.0082    2.9009  -35.3446    3.0759  -34.9477    2.8538  -34.9025    2.8965  -34.8406    2.9723  -34.9647    3.1761   -0.1396  -49.5153
  5.950  -34.5437    2.7785  -34.8660    2.9444  -34.4857    2.7354  -34.4445    2.7739  -34.3831    2.8497  -34.5029    3.0431   -0.0781  -49.5154
  5.960  -34.0962    2.6643  -34.4053    2.8220  -34.0406    2.6250  -34.0029    2.6596  -33.9422    2.7354  -34.0578    2.9192   -0.0428  -49.5154
  5.970  -33.6647    2.5577  -33.9614    2.7079  -33.6114    2.5219  -33.5770    2.5528  -33.5167    2.6285  -33.6284    2.8035   -0.0229  -49.5154
  5.980  -33.2482    2.4580  -33.5332    2.6013  -33.1969    2.4254  -33.1656    2.4529  -33.1059    2.5285  -33.2137    2.6953   -0.0120  -49.5154
  5.990  -32.8457    2.3646  -33.1198    2.5016  -32.7965    2.3350  -32.7679    2.3592  -32.7088    2.4347  -32.8131    2.5939   -0.0061  -49.5154
  6.000  -32.4566    2.2769  -32.7204    2.4082  -32.4092    2.2502  -32.3833    2.2713  -32.3246    2.3467  -32.4255    2.4988   -0.0030  -49.5154
  6.010  -32.0800    2.1945  -32.3341    2.3206  -32.0344    2.1705  -32.0108    2.1887  -31.9526    2.2640  -32.0503    2.4094   -0.0015  -49.5154
  6.020  -31.7152    2.1170  -31.9602    2.2382  -31.6713    2.0955  -31.6500    2.1110  -31.5922    2.1861  -31.6868    2.3254   -0.0007  -49.5154
  6.030  -31.3616    2.0440  -31.5980    2.1606  -31.3192    2.0248  -31.3000    2.0377  -31.2428    2.1126  -31.3344    2.2461   -0.0003  -49.5154
  6.040  -31.0186    1.9752  -31.2468    2.0876  -30.9777    1.9582  -30.9604    1.9686  -30.9036    2.0433  -30.9925    2.1714   -0.0002  -49.5154
  6.050  -30.6857    1.9101  -30.9061    2.0186  -30.6462    1.8951  -30.6307    1.9033  -30.5743    1.9778  -30.6605    2.1008   -0.0001  -49.5154
  6.060  -30.3622    1.8486  -30.5754    1.9535  -30.3240    1.8356  -30.3102    1.8415  -30.2543    1.9158  -30.3380    2.0340   -0.0000  -49.5154
  6.070  -30.0478    1.7904  -30.2540    1.8919  -30.0109    1.7791  -29.9986    1.7830  -29.9432    1.8571  -30.0244    1.9708   -0.0000  -49.5154
  6.080  -29.7420    1.7352  -29.9416    1.8335  -29.7063    1.7256  -29.6954    1.7276  -29.6404    1.8014  -29.7194    1.9109   -0.0000  -49.5154
  6.090  -29.4444    1.6828  -29.6377    1.7782  -29.4098    1.6749  -29.4003    1.6750  -29.3457    1.7486  -29.4224    1.8540   -0.0000  -49.5154
  6.100  -29.1545    1.6331  -29.3419    1.7257  -29.1210    1.6266  -29.1127    1.6250  -29.0586    1.6984  -29.1332    1.8000   -0.0000  -49.5154
  6.110  -28.8720    1.5858  -29.0538    1.6758  -28.8396    1.5808  -28.8325    1.5775  -28.7788    1.6506  -28.8514    1.7487   -0.0000  -49.5154
  6.120  -28.5967    1.5408  -28.7731    1.6284  -28.5652    1.5371  -28.5592    1.5323  -28.5059    1.6052  -28.5766    1.6998   -0.0000  -49.5154
  6.130  -28.3281    1.4980  -28.4994    1.5833  -28.2975    1.4955  -28.2925    1.4893  -28.2397    1.5618  -28.3085    1.6533   -0.0000  -49.5154
  6.140  -28.0659    1.4571  -28.2323    1.5402  -28.0363    1.4559  -28.0322    1.4482  -27.9798    1.5205  -28.0468    1.6089   -0.0000  -49.5154
  6.150  -27.8099    1.4182  -27.9717    1.4992  -27.7812    1.4180  -27.7780    1.4091  -27.7260    1.4811  -27.7913    1.5665   -0.0000  -49.5154
  6.160  -27.5599    1.3810  -27.7172    1.4601  -27.5319    1.3819  -27.5296    1.3717  -27.4780    1.4434  -27.5417    1.5261   -0.0000  -49.5154
  6.170  -27.3155    1.3454  -27.4686    1.4227  -27.2883    1.3473  -27.2868    1.3359  -27.2356    1.4073  -27.2977    1.4874   -0.0000  -49.5154
  6.180  -27.0765    1.3114  -27.2255    1.3869  -27.0502    1.3142  -27.0493    1.3018  -26.9985    1.3728  -27.0591    1.4504   -0.0000  -49.5154
  6.190  -26.8428    1.2788  -26.9879    1.3527  -26.8171    1.2826  -26.8169    1.2691  -26.7666    1.3398  -26.8257    1.4150   -0.0000  -49.5154
  6.200  -26.6140    1.2477  -26.7554    1.3200  -26.5891    1.2522  -26.5895    1.2377  -26.5395    1.3082  -26.5973    1.3811   -0.0000  -49.5154
  6.210  -26.3901    1.2178  -26.5279    1.2886  -26.3658    1.2231  -26.3668    1.2077  -26.3173    1.2778  -26.3737    1.3486   -0.0000  -49.5154
  6.220  -26.1708    1.1891  -26.3052    1.2585  -26.1472    1.1952  -26.1487    1.1789  -26.0995    1.2487  -26.1546    1.3174   -0.0000  -49.5154
  6.230  -25.9559    1.1616  -26.0871    1.2296  -25.9329    1.1684  -25.9350    1.1513  -25.8862    1.2207  -25.9401    1.2875   -0.0000  -49.5154
  6.240  -25.7453    1.1352  -25.8733    1.2019  -25.7229    1.1426  -25.7255    1.1247  -25.6771    1.1938  -25.7297    1.2587   -0.0000  -49.5154
  6.250  -25.5388    1.1098  -25.6639    1.1752  -25.5171    1.1179  -25.5201    1.0992  -25.4720    1.1680  -25.5235    1.2310   -0.0000  -49.5154
  6.260  -25.3364    1.0854  -25.4585    1.1496  -25.3151    1.0940  -25.3186    1.0747  -25.2709    1.1431  -25.3213    1.2044   -0.0000  -49.5154
  6.270  -25.1377    1.0619  -25.2570    1.1249  -25.1170    1.0711  -25.1209    1.0510  -25.0736    1.1192  -25.1229    1.1788   -0.0000  -49.5154
  6.280  -24.9428    1.0392  -25.0594    1.1012  -24.9226    1.0490  -24.9268    1.0283  -24.8799    1.0961  -24.9282    1.1542   -0.0000  -49.5154
  6.290  -24.7514    1.0174  -24.8655    1.0784  -24.7317    1.0277  -24.7363    1.0064  -24.6897    1.0739  -24.7370    1.1304   -0.0000  -49.5154
  6.300  -24.5635    0.9964  -24.6750    1.0563  -24.5443    1.0072  -24.5492    0.9853  -24.5030    1.0524  -24.5493    1.1075   -0.0000  -49.5154
  6.310  -24.3789    0.9762  -24.4881    1.0351  -24.3602    0.9874  -24.3653    0.9650  -24.3195    1.0318  -24.3649    1.0854   -0.0000  -49.5154
  6.320  -24.1975    0.9566  -24.3044    1.0146  -24.1793    0.9682  -24.1847    0.9454  -24.1393    1.0118  -24.1837    1.0641   -0.0000  -49.5154
  6.330  -24.0193    0.9378  -24.1239    0.9948  -24.0015    0.9498  -24.0072    0.9264  -23.9621    0.9925  -24.0057    1.0435   -0.0000  -49.5154
  6.340  -23.8441    0.9195  -23.9466    0.9757  -23.8267    0.9319  -23.8326    0.9081  -23.7879    0.9738  -23.8307    1.0236   -0.0000  -49.5154
  6.350  -23.6718    0.9019  -23.7722    0.9573  -23.6548    0.9147  -23.6610    0.8904  -23.6166    0.9558  -23.6585    1.0043   -0.0000  -49.5154
  6.360  -23.5024    0.8849  -23.6008    0.9394  -23.4858    0.8980  -23.4922    0.8733  -23.4481    0.9384  -23.4893    0.9857   -0.0000  -49.5154
  6.370  -23.3357    0.8684  -23.4322    0.9221  -23.3194    0.8818  -23.3261    0.8568  -23.2824    0.9215  -23.3227    0.9677   -0.0000  -49.5154
  6.380  -23.1717    0.8525  -23.2663    0.9054  -23.1558    0.8662  -23.1626    0.8408  -23.1192    0.9052  -23.1588    0.9503   -0.0000  -49.5154
  6.390  -23.0102    0.8370  -23.1030    0.8893  -22.9947    0.8510  -23.0017    0.8253  -22.9587    0.8893  -22.9976    0.9335   -0.0000  -49.5154
  6.400  -22.8513    0.8221  -22.9424    0.8736  -22.8361    0.8363  -22.8433    0.8103  -22.8006    0.8740  -22.8388    0.9171   -0.0000  -49.5154
  6.410  -22.6948    0.8076  -22.7842    0.8584  -22.6800    0.8221  -22.6873    0.7958  -22.6449    0.8591  -22.6824    0.9013   -0.0000  -49.5154
  6.420  -22.5407    0.7936  -22.6284    0.8437  -22.5262    0.8083  -22.5336    0.7817  -22.4916    0.8447  -22.5285    0.8859   -0.0000  -49.5154
  6.430  -22.3889    0.7800  -22.4751    0.8294  -22.3747    0.7949  -22.3823    0.7681  -22.3406    0.8307  -22.3768    0.8710   -0.0000  -49.5154
  6.440  -22.2393    0.7667  -22.3240    0.8156  -22.2254    0.7819  -22.2331    0.7548  -22.1918    0.8172  -22.2273    0.8566   -0.0000  -49.5154
  6.450  -22.0919    0.7539  -22.1751    0.8022  -22.0783    0.7693  -22.0862    0.7420  -22.0451    0.8040  -22.0801    0.8425   -0.0000  -49.5154
  6.460  -21.9467    0.7415  -22.0284    0.7891  -21.9334    0.7570  -21.9413    0.7295  -21.9006    0.7912  -21.9349    0.8289   -0.0000  -49.5154
  6.470  -21.8035    0.7294  -21.8838    0.7764  -21.7904    0.7451  -21.7985    0.7174  -21.7580    0.7787  -21.7918    0.8157   -0.0000  -49.5154
  6.480  -21.6623    0.7177  -21.7412    0.7641  -21.6495    0.7335  -21.6576    0.7056  -21.6175    0.7666  -21.6508    0.8028   -0.0000  -49.5154
  6.490  -21.5230    0.7062  -21.6007    0.7522  -21.5105    0.7223  -21.5187    0.6942  -21.4789    0.7549  -21.5116    0.7903   -0.0000  -49.5154
  6.500  -21.3857    0.6952  -21.4621    0.7405  -21.3735    0.7113  -21.3817    0.6831  -21.3422    0.7434  -21.3744    0.7781   -0.0000  -49.5154
  6.510  -21.2502    0.6844  -21.3254    0.7292  -21.2382    0.7007  -21.2466    0.6722  -21.2074    0.7323  -21.2391    0.7663   -0.0000  -49.5154
  6.520  -21.1166    0.6739  -21.1905    0.7182  -21.1048    0.6903  -21.1132    0.6617  -21.0743    0.7215  -21.1055    0.7548   -0.0000  -49.5154
  6.530  -20.9847    0.6637  -21.0575    0.7075  -20.9732    0.6802  -20.9816    0.6515  -20.9430    0.7109  -20.9737    0.7436   -0.0000  -49.5154
  6.540  -20.8545    0.6537  -20.9262    0.6971  -20.8432    0.6704  -20.8518    0.6415  -20.8134    0.7006  -20.8437    0.7327   -0.0000  -49.5154
  6.550  -20.7260    0.6440  -20.7966    0.6869  -20.7150    0.6608  -20.7235    0.6318  -20.6855    0.6906  -20.7153    0.7221   -0.0000  -49.5154
  6.560  -20.5992    0.6346  -20.6687    0.6770  -20.5883    0.6514  -20.5970    0.6224  -20.5592    0.6809  -20.5885    0.7117   -0.0000  -49.5154
  6.570  -20.4740    0.6254  -20.5424    0.6673  -20.4633    0.6423  -20.4720    0.6132  -20.4345    0.6714  -20.4634    0.7016   -0.0000  -49.5154
  6.580  -20.3503    0.6164  -20.4177    0.6579  -20.3399    0.6334  -20.3485    0.6042  -20.3114    0.6621  -20.3398    0.6918   -0.0000  -49.5154
  6.590  -20.2282    0.6077  -20.2946    0.6488  -20.2179    0.6248  -20.2266    0.5955  -20.1897    0.6530  -20.2178    0.6822   -0.0000  -49.5154
  6.600  -20.1075    0.5992  -20.1730    0.6398  -20.0975    0.6163  -20.1062    0.5870  -20.0696    0.6442  -20.0972    0.6728   -0.0000  -49.5154
  6.610  -19.9883    0.5909  -20.0529    0.6311  -19.9785    0.6081  -19.9873    0.5787  -19.9509    0.6356  -19.9781    0.6637   -0.0000  -49.5154
  6.620  -19.8706    0.5828  -19.9343    0.6226  -19.8609    0.6000  -19.8697    0.5706  -19.8336    0.6272  -19.8605    0.6548   -0.0000  -49.5154
  6.630  -19.7542    0.5749  -19.8170    0.6143  -19.7447    0.5922  -19.7536    0.5626  -19.7177    0.6190  -19.7442    0.6461   -0.0000  -49.5154
  6.640  -19.6393    0.5672  -19.7012    0.6062  -19.6299    0.5845  -19.6388    0.5549  -19.6032    0.6110  -19.6293    0.6376   -0.0000  -49.5154
  6.650  -19.5256    0.5596  -19.5867    0.5982  -19.5165    0.5770  -19.5253    0.5474  -19.4900    0.6031  -19.5158    0.6293   -0.0000  -49.5154
  6.660  -19.4133    0.5522  -19.4736    0.5905  -19.4043    0.5697  -19.4132    0.5400  -19.3781    0.5955  -19.4035    0.6212   -0.0000  -49.5154
  6.670  -19.3022    0.5451  -19.3617    0.5829  -19.2934    0.5625  -19.3023    0.5328  -19.2675    0.5880  -19.2926    0.6132   -0.0000  -49.5154
  6.680  -19.1924    0.5380  -19.2512    0.5756  -19.1838    0.5555  -19.1926    0.5258  -19.1581    0.5807  -19.1828    0.6055   -0.0000  -49.5154
  6.690  -19.0839    0.5312  -19.1418    0.5683  -19.0754    0.5487  -19.0842    0.5189  -19.0500    0.5735  -19.0744    0.5979   -0.0000  -49.5154
  6.700  -18.9765    0.5244  -19.0338    0.5613  -18.9681    0.5420  -18.9770    0.5122  -18.9430    0.5665  -18.9671    0.5905   -0.0000  -49.5154
  6.710  -18.8703    0.5179  -18.9269    0.5543  -18.8621    0.5354  -18.8710    0.5057  -18.8372    0.5597  -18.8610    0.5833   -0.0000  -49.5154
  6.720  -18.7653    0.5114  -18.8211    0.5476  -18.7572    0.5290  -18.7661    0.4992  -18.7326    0.5530  -18.7560    0.5762   -0.0000  -49.5154
  6.730  -18.6614    0.5052  -18.7166    0.5410  -18.6535    0.5227  -18.6624    0.4930  -18.6291    0.5464  -18.6522    0.5693   -0.0000  -49.5154
  6.740  -18.5587    0.4990  -18.6131    0.5345  -18.5509    0.5166  -18.5597    0.4868  -18.5267    0.5400  -18.5495    0.5625   -0.0000  -49.5154
  6.750  -18.4570    0.4930  -18.5108    0.5282  -18.4493    0.5106  -18.4582    0.4808  -18.4253    0.5337  -18.4479    0.5559   -0.0000  -49.5154
  6.760  -18.3564    0.4871  -18.4096    0.5220  -18.3488    0.5047  -18.3577    0.4749  -18.3251    0.5276  -18.3474    0.5494   -0.0000  -49.5154
  6.770  -18.2568    0.4813  -18.3094    0.5159  -18.2494    0.4989  -18.2582    0.4692  -18.2259    0.5216  -18.2479    0.5430   -0.0000  -49.5154
  6.780  -18.1583    0.4757  -18.2103    0.5099  -18.1510    0.4932  -18.1598    0.4635  -18.1277    0.5157  -18.1494    0.5368   -0.0000  -49.5154
  6.790  -18.0607    0.4702  -18.1121    0.5041  -18.0536    0.4877  -18.0624    0.4580  -18.0305    0.5099  -18.0520    0.5306   -0.0000  -49.5154
  6.800  -17.9642    0.4647  -18.0150    0.4984  -17.9572    0.4823  -17.9660    0.4526  -17.9343    0.5042  -17.9555    0.5247   -0.0000  -49.5154
  6.810  -17.8687    0.4594  -17.9189    0.4928  -17.8617    0.4770  -17.8705    0.4473  -17.8391    0.4987  -17.8600    0.5188   -0.0000  -49.5154
  6.820  -17.7741    0.4542  -17.8238    0.4873  -17.7672    0.4717  -17.7760    0.4421  -17.7448    0.4932  -17.7655    0.5130   -0.0000  -49.5154
  6.830  -17.6804    0.4491  -17.7296    0.4819  -17.6737    0.4666  -17.6824    0.4370  -17.6514    0.4879  -17.6719    0.5074   -0.0000  -49.5154
  6.840  -17.5877    0.4441  -17.6363    0.4767  -17.5810    0.4616  -17.5898    0.4320  -17.5590    0.4826  -17.5793    0.5019   -0.0000  -49.5154
  6.850  -17.4958    0.4392  -17.5440    0.4715  -17.4893    0.4567  -17.4980    0.4271  -17.4675    0.4775  -17.4875    0.4965   -0.0000  -49.5154
  6.860  -17.4049    0.4344  -17.4525    0.4664  -17.3985    0.4518  -17.4072    0.4223  -17.3768    0.4725  -17.3966    0.4911   -0.0000  -49.5154
  6.870  -17.3148    0.4297  -17.3620    0.4614  -17.3085    0.4471  -17.3172    0.4176  -17.2870    0.4675  -17.3066    0.4859   -0.0000  -49.5154
  6.880  -17.2256    0.4251  -17.2723    0.4566  -17.2194    0.4424  -17.2281    0.4130  -17.1981    0.4627  -17.2175    0.4808   -0.0000  -49.5154
  6.890  -17.1372    0.4205  -17.1835    0.4518  -17.1311    0.4379  -17.1398    0.4085  -17.1100    0.4579  -17.1292    0.4758   -0.0000  -49.5154
  6.900  -17.0497    0.4161  -17.0955    0.4471  -17.0437    0.4334  -17.0523    0.4040  -17.0228    0.4532  -17.0417    0.4709   -0.0000  -49.5154
  6.910  -16.9630    0.4117  -17.0083    0.4424  -16.9570    0.4290  -16.9657    0.3997  -16.9363    0.4486  -16.9551    0.4660   -0.0000  -49.5154
  6.920  -16.8771    0.4074  -16.9220    0.4379  -16.8712    0.4247  -16.8798    0.3954  -16.8507    0.4441  -16.8692    0.4613   -0.0000  -49.5154
  6.930  -16.7919    0.4032  -16.8364    0.4335  -16.7862    0.4204  -16.7948    0.3912  -16.7658    0.4397  -16.7842    0.4566   -0.0000  -49.5154
  6.940  -16.7076    0.3991  -16.7517    0.4291  -16.7019    0.4163  -16.7105    0.3871  -16.6817    0.4353  -16.6999    0.4520   -0.0000  -49.5154
  6.950  -16.6240    0.3950  -16.6677    0.4248  -16.6184    0.4122  -16.6270    0.3830  -16.5984    0.4311  -16.6164    0.4475   -0.0000  -49.5154
  6.960  -16.5412    0.3910  -16.5845    0.4206  -16.5357    0.4081  -16.5442    0.3790  -16.5158    0.4269  -16.5336    0.4431   -0.0000  -49.5154
  6.970  -16.4591    0.3871  -16.5020    0.4164  -16.4537    0.4042  -16.4622    0.3751  -16.4340    0.4227  -16.4516    0.4388   -0.0000  -49.5154
  6.980  -16.3777    0.3833  -16.4203    0.4124  -16.3724    0.4003  -16.3809    0.3713  -16.3529    0.4187  -16.3703    0.4345   -0.0000  -49.5154
  6.990  -16.2971    0.3795  -16.3393    0.4084  -16.2918    0.3965  -16.3003    0.3675  -16.2725    0.4147  -16.2897    0.4303   -0.0000  -49.5154
  7.000  -16.2172    0.3758  -16.2590    0.4044  -16.2120    0.3927  -16.2204    0.3638  -16.1928    0.4108  -16.2098    0.4262   -0.0000  -49.5154
  7.010  -16.1379    0.3721  -16.1794    0.4006  -16.1328    0.3890  -16.1412    0.3602  -16.1138    0.4069  -16.1307    0.4221   -0.0000  -49.5154
  7.020  -16.0594    0.3685  -16.1005    0.3967  -16.0543    0.3854  -16.0627    0.3566  -16.0355    0.4032  -16.0522    0.4181   -0.0000  -49.5154
  7.030  -15.9815    0.3650  -16.0223    0.3930  -15.9765    0.3818  -15.9849    0.3531  -15.9578    0.3994  -15.9743    0.4142   -0.0000  -49.5154
  7.040  -15.9043    0.3615  -15.9447    0.3893  -15.8994    0.3783  -15.9077    0.3496  -15.8808    0.3958  -15.8972    0.4104   -0.0000  -49.5154
  7.050  -15.8277    0.3581  -15.8678    0.3857  -15.8229    0.3748  -15.8312    0.3462  -15.8045    0.3922  -15.8207    0.4066   -0.0000  -49.5154
  7.060  -15.7518    0.3548  -15.7916    0.3822  -15.7470    0.3714  -15.7553    0.3429  -15.7288    0.3886  -15.7448    0.4029   -0.0000  -49.5154
  7.070  -15.6765    0.3515  -15.7160    0.3787  -15.6718    0.3681  -15.6801    0.3396  -15.6537    0.3851  -15.6696    0.3992   -0.0000  -49.5154
  7.080  -15.6019    0.3482  -15.6410    0.3752  -15.5972    0.3648  -15.6054    0.3363  -15.5793    0.3817  -15.5950    0.3956   -0.0000  -49.5154
  7.090  -15.5278    0.3450  -15.5667    0.3718  -15.5232    0.3615  -15.5314    0.3331  -15.5054    0.3783  -15.5210    0.3920   -0.0000  -49.5154
  7.100  -15.4544    0.3419  -15.4930    0.3685  -15.4499    0.3583  -15.4581    0.3300  -15.4322    0.3750  -15.4477    0.3885   -0.0000  -49.5154
  7.110  -15.3815    0.3388  -15.4199    0.3652  -15.3771    0.3552  -15.3853    0.3269  -15.3596    0.3717  -15.3749    0.3851   -0.0000  -49.5154
  7.120  -15.3093    0.3357  -15.3474    0.3620  -15.3049    0.3521  -15.3130    0.3239  -15.2875    0.3685  -15.3027    0.3817   -0.0000  -49.5154
  7.130  -15.2376    0.3327  -15.2754    0.3588  -15.2333    0.3491  -15.2414    0.3209  -15.2161    0.3653  -15.2311    0.3784   -0.0000  -49.5154
  7.140  -15.1665    0.3298  -15.2041    0.3557  -15.1623    0.3461  -15.1704    0.3179  -15.1452    0.3622  -15.1601    0.3751   -0.0000  -49.5154
  7.150  -15.0960    0.3269  -15.1333    0.3526  -15.0918    0.3431  -15.0999    0.3150  -15.0749    0.3591  -15.0896    0.3719   -0.0000  -49.5154
  7.160  -15.0261    0.3240  -15.0631    0.3495  -15.0219    0.3402  -15.0299    0.3122  -15.0051    0.3561  -15.0197    0.3687   -0.0000  -49.5154
  7.170  -14.9566    0.3212  -14.9934    0.3465  -14.9525    0.3373  -14.9606    0.3094  -14.9359    0.3531  -14.9504    0.3656   -0.0000  -49.5154
  7.180  -14.8878    0.3185  -14.9243    0.3436  -14.8837    0.3345  -14.8917    0.3066  -14.8672    0.3502  -14.8815    0.3625   -0.0000  -49.5154
  7.190  -14.8194    0.3157  -14.8558    0.3407  -14.8154    0.3317  -14.8234    0.3039  -14.7990    0.3473  -14.8133    0.3595   -0.0000  -49.5154
  7.200  -14.7516    0.3130  -14.7877    0.3378  -14.7477    0.3290  -14.7556    0.3012  -14.7314    0.3444  -14.7455    0.3565   -0.0000  -49.5154
  7.210  -14.6843    0.3104  -14.7202    0.3350  -14.6804    0.3263  -14.6884    0.2986  -14.6643    0.3416  -14.6783    0.3535   -0.0000  -49.5154
  7.220  -14.6176    0.3078  -14.6532    0.3322  -14.6137    0.3236  -14.6216    0.2959  -14.5977    0.3389  -14.6116    0.3506   -0.0000  -49.5154
  7.230  -14.5513    0.3052  -14.5868    0.3295  -14.5475    0.3210  -14.5554    0.2934  -14.5316    0.3361  -14.5454    0.3478   -0.0000  -49.5154
  7.240  -14.4855    0.3027  -14.5208    0.3268  -14.4818    0.3184  -14.4896    0.2909  -14.4660    0.3335  -14.4797    0.3449   -0.0000  -49.5154
  7.250  -14.4203    0.3002  -14.4553    0.3241  -14.4166    0.3159  -14.4244    0.2884  -14.4009    0.3308  -14.4144    0.3422   -0.0000  -49.5154
  7.260  -14.3555    0.2977  -14.3903    0.3215  -14.3518    0.3133  -14.3596    0.2859  -14.3363    0.3282  -14.3497    0.3394   -0.0000  -49.5154
  7.270  -14.2912    0.2953  -14.3258    0.3189  -14.2876    0.3109  -14.2954    0.2835  -14.2722    0.3256  -14.2855    0.3367   -0.0000  -49.5154
  7.280  -14.2273    0.2929  -14.2618    0.3164  -14.2238    0.3084  -14.2316    0.2811  -14.2085    0.3231  -14.2217    0.3341   -0.0000  -49.5154
  7.290  -14.1640    0.2906  -14.1983    0.3139  -14.1605    0.3060  -14.1682    0.2787  -14.1453    0.3206  -14.1584    0.3315   -0.0000  -49.5154
  7.300  -14.1011    0.2883  -14.1352    0.3114  -14.0976    0.3036  -14.1053    0.2764  -14.0826    0.3181  -14.0956    0.3289   -0.0000  -49.5154
  7.310  -14.0386    0.2860  -14.0726    0.3090  -14.0352    0.3013  -14.0429    0.2741  -14.0203    0.3157  -14.0332    0.3263   -0.0000  -49.5154
  7.320  -13.9767    0.2837  -14.0105    0.3066  -13.9733    0.2990  -13.9810    0.2719  -13.9585    0.3133  -13.9713    0.3238   -0.0000  -49.5154
  7.330  -13.9151    0.2815  -13.9487    0.3042  -13.9118    0.2967  -13.9194    0.2696  -13.8971    0.3109  -13.9098    0.3213   -0.0000  -49.5154
  7.340  -13.8540    0.2793  -13.8875    0.3018  -13.8507    0.2945  -13.8583    0.2674  -13.8362    0.3086  -13.8487    0.3189   -0.0000  -49.5154
  7.350  -13.7933    0.2771  -13.8267    0.2995  -13.7901    0.2922  -13.7977    0.2653  -13.7757    0.3063  -13.7881    0.3165   -0.0000  -49.5154
  7.360  -13.7331    0.2750  -13.7663    0.2973  -13.7299    0.2900  -13.7375    0.2631  -13.7156    0.3040  -13.7279    0.3141   -0.0000  -49.5154
  7.370  -13.6733    0.2729  -13.7063    0.2950  -13.6701    0.2879  -13.6777    0.2610  -13.6559    0.3018  -13.6682    0.3118   -0.0000  -49.5154
  7.380  -13.6139    0.2708  -13.6468    0.2928  -13.6107    0.2858  -13.6183    0.2589  -13.5967    0.2996  -13.6088    0.3095   -0.0000  -49.5154
  7.390  -13.5549    0.2688  -13.5877    0.2906  -13.5518    0.2837  -13.5593    0.2569  -13.5379    0.2974  -13.5499    0.3072   -0.0000  -49.5154
  7.400  -13.4963    0.2668  -13.5290    0.2884  -13.4932    0.2816  -13.5008    0.2549  -13.4794    0.2952  -13.4914    0.3049   -0.0000  -49.5154
  7.410  -13.4382    0.2648  -13.4707    0.2863  -13.4351    0.2795  -13.4426    0.2529  -13.4214    0.2931  -13.4333    0.3027   -0.0000  -49.5154
  7.420  -13.3804    0.2628  -13.4128    0.2842  -13.3774    0.2775  -13.3849    0.2509  -13.3638    0.2910  -13.3756    0.3005   -0.0000  -49.5154
  7.430  -13.3230    0.2609  -13.3553    0.2821  -13.3200    0.2755  -13.3275    0.2489  -13.3066    0.2890  -13.3182    0.2984   -0.0000  -49.5154
  7.440  -13.2660    0.2590  -13.2982    0.2801  -13.2630    0.2735  -13.2705    0.2470  -13.2497    0.2869  -13.2613    0.2962   -0.0000  -49.5154
  7.450  -13.2094    0.2571  -13.2414    0.2781  -13.2065    0.2716  -13.2139    0.2451  -13.1933    0.2849  -13.2048    0.2941   -0.0000  -49.5154
  7.460  -13.1532    0.2552  -13.1851    0.2761  -13.1503    0.2697  -13.1577    0.2433  -13.1372    0.2829  -13.1486    0.2921   -0.0000  -49.5154
  7.470  -13.0973    0.2534  -13.1291    0.2741  -13.0945    0.2678  -13.1019    0.2414  -13.0815    0.2810  -13.0928    0.2900   -0.0000  -49.5154
  7.480  -13.0418    0.2516  -13.0736    0.2722  -13.0390    0.2659  -13.0464    0.2396  -13.0261    0.2790  -13.0374    0.2880   -0.0000  -49.5154
  7.490  -12.9867    0.2498  -13.0184    0.2702  -12.9839    0.2641  -12.9913    0.2378  -12.9712    0.2771  -12.9823    0.2860   -0.0000  -49.5154
  7.500  -12.9320    0.2480  -12.9635    0.2683  -12.9292    0.2623  -12.9366    0.2360  -12.9166    0.2752  -12.9276    0.2840   -0.0000  -49.5154
  7.510  -12.8776    0.2463  -12.9090    0.2665  -12.8748    0.2605  -12.8822    0.2342  -12.8623    0.2734  -12.8733    0.2821   -0.0000  -49.5154
  7.520  -12.8236    0.2445  -12.8549    0.2646  -12.8208    0.2587  -12.8282    0.2325  -12.8084    0.2716  -12.8193    0.2802   -0.0000  -49.5154
  7.530  -12.7699    0.2429  -12.8012    0.2628  -12.7672    0.2569  -12.7745    0.2308  -12.7549    0.2697  -12.7657    0.2783   -0.0000  -49.5154
  7.540  -12.7165    0.2412  -12.7477    0.2610  -12.7139    0.2552  -12.7212    0.2291  -12.7016    0.2680  -12.7124    0.2764   -0.0000  -49.5154
  7.550  -12.6635    0.2395  -12.6947    0.2592  -12.6609    0.2535  -12.6682    0.2274  -12.6488    0.2662  -12.6595    0.2745   -0.0000  -49.5154
  7.560  -12.6109    0.2379  -12.6419    0.2574  -12.6082    0.2518  -12.6156    0.2257  -12.5963    0.2644  -12.6069    0.2727   -0.0000  -49.5154
  7.570  -12.5585    0.2363  -12.5895    0.2557  -12.5559    0.2501  -12.5633    0.2241  -12.5441    0.2627  -12.5546    0.2709   -0.0000  -49.5154
  7.580  -12.5065    0.2347  -12.5375    0.2540  -12.5040    0.2485  -12.5113    0.2225  -12.4922    0.2610  -12.5027    0.2691   -0.0000  -49.5154
  7.590  -12.4549    0.2331  -12.4858    0.2523  -12.4523    0.2468  -12.4596    0.2209  -12.4407    0.2593  -12.4511    0.2674   -0.0000  -49.5154
  7.600  -12.4035    0.2316  -12.4344    0.2506  -12.4010    0.2452  -12.4083    0.2193  -12.3895    0.2577  -12.3998    0.2657   -0.0000  -49.5154
  7.610  -12.3525    0.2300  -12.3833    0.2490  -12.3500    0.2436  -12.3573    0.2178  -12.3386    0.2560  -12.3488    0.2640   -0.0000  -49.5154
  7.620  -12.3018    0.2285  -12.3325    0.2473  -12.2993    0.2421  -12.3066    0.2162  -12.2880    0.2544  -12.2982    0.2623   -0.0000  -49.5154
  7.630  -12.2514    0.2270  -12.2821    0.2457  -12.2489    0.2405  -12.2562    0.2147  -12.2377    0.2528  -12.2478    0.2606   -0.0000  -49.5154
  7.640  -12.2013    0.2255  -12.2319    0.2441  -12.1989    0.2390  -12.2061    0.2132  -12.1877    0.2513  -12.1978    0.2590   -0.0000  -49.5154
  7.650  -12.1515    0.2241  -12.1821    0.2425  -12.1491    0.2375  -12.1564    0.2117  -12.1381    0.2497  -12.1481    0.2573   -0.0000  -49.5154
  7.660  -12.1020    0.2226  -12.1326    0.2410  -12.0996    0.2360  -12.1069    0.2102  -12.0887    0.2482  -12.0987    0.2557   -0.0000  -49.5154
  7.670  -12.0528    0.2212  -12.0834    0.2394  -12.0505    0.2345  -12.0577    0.2088  -12.0397    0.2466  -12.0495    0.2541   -0.0000  -49.5154
  7.680  -12.0039    0.2198  -12.0345    0.2379  -12.0016    0.2330  -12.0089    0.2073  -11.9909    0.2451  -12.0007    0.2526   -0.0000  -49.5154
  7.690  -11.9553    0.2184  -11.9859    0.2364  -11.9530    0.2316  -11.9603    0.2059  -11.9425    0.2437  -11.9522    0.2510   -0.0000  -49.5154
  7.700  -11.9070    0.2170  -11.9375    0.2349  -11.9047    0.2302  -11.9120    0.2045  -11.8943    0.2422  -11.9039    0.2495   -0.0000  -49.5154
  7.710  -11.8590    0.2157  -11.8895    0.2335  -11.8567    0.2288  -11.8640    0.2031  -11.8464    0.2408  -11.8560    0.2480   -0.0000  -49.5154
  7.720  -11.8113    0.2144  -11.8418    0.2320  -11.8090    0.2274  -11.8163    0.2017  -11.7988    0.2393  -11.8083    0.2465   -0.0000  -49.5154
  7.730  -11.7638    0.2130  -11.7943    0.2306  -11.7616    0.2260  -11.7688    0.2004  -11.7514    0.2379  -11.7609    0.2450   -0.0000  -49.5154
  7.740  -11.7166    0.2117  -11.7471    0.2292  -11.7144    0.2246  -11.7217    0.1990  -11.7044    0.2365  -11.7138    0.2436   -0.0000  -49.5154
  7.750  -11.6697    0.2104  -11.7002    0.2278  -11.6675    0.2233  -11.6748    0.1977  -11.6576    0.2352  -11.6669    0.2422   -0.0000  -49.5154
  7.760  -11.6231    0.2092  -11.6536    0.2264  -11.6209    0.2220  -11.6281    0.1964  -11.6111    0.2338  -11.6204    0.2407   -0.0000  -49.5154
  7.770  -11.5767    0.2079  -11.6072    0.2250  -11.5745    0.2206  -11.5818    0.1951  -11.5648    0.2325  -11.5741    0.2393   -0.0000  -49.5154
  7.780  -11.5306    0.2067  -11.5611    0.2237  -11.5284    0.2193  -11.5357    0.1938  -11.5188    0.2311  -11.5280    0.2380   -0.0000  -49.5154
  7.790  -11.4847    0.2054  -11.5153    0.2223  -11.4826    0.2181  -11.4899    0.1925  -11.4731    0.2298  -11.4822    0.2366   -0.0000  -49.5154
  7.800  -11.4391    0.2042  -11.4697    0.2210  -11.4370    0.2168  -11.4443    0.1913  -11.4276    0.2286  -11.4367    0.2353   -0.0000  -49.5154
  7.810  -11.3938    0.2030  -11.4244    0.2197  -11.3917    0.2155  -11.3990    0.1900  -11.3824    0.2273  -11.3914    0.2339   -0.0000  -49.5154
  7.820  -11.3487    0.2019  -11.3794    0.2184  -11.3467    0.2143  -11.3539    0.1888  -11.3375    0.2260  -11.3464    0.2326   -0.0000  -49.5154
  7.830  -11.3039    0.2007  -11.3346    0.2172  -11.3018    0.2131  -11.3091    0.1876  -11.2928    0.2248  -11.3017    0.2313   -0.0000  -49.5154
  7.840  -11.2593    0.1995  -11.2900    0.2159  -11.2573    0.2119  -11.2646    0.1864  -11.2483    0.2236  -11.2572    0.2300   -0.0000  -49.5154
  7.850  -11.2150    0.1984  -11.2457    0.2146  -11.2130    0.2107  -11.2202    0.1852  -11.2041    0.2223  -11.2129    0.2288   -0.0000  -49.5154
  7.860  -11.1709    0.1973  -11.2017    0.2134  -11.1689    0.2095  -11.1762    0.1840  -11.1601    0.2211  -11.1689    0.2275   -0.0000  -49.5154
  7.870  -11.1270    0.1962  -11.1579    0.2122  -11.1250    0.2083  -11.1323    0.1828  -11.1164    0.2200  -11.1251    0.2263   -0.0000  -49.5154
  7.880  -11.0834    0.1951  -11.1143    0.2110  -11.0814    0.2072  -11.0887    0.1817  -11.0729    0.2188  -11.0815    0.2251   -0.0000  -49.5154
  7.890  -11.0400    0.1940  -11.0710    0.2098  -11.0380    0.2061  -11.0454    0.1805  -11.0296    0.2177  -11.0382    0.2239   -0.0000  -49.5154
  7.900  -10.9969    0.1929  -11.0279    0.2086  -10.9949    0.2049  -11.0022    0.1794  -10.9866    0.2165  -10.9951    0.2227   -0.0000  -49.5154
  7.910  -10.9539    0.1919  -10.9850    0.2075  -10.9520    0.2038  -10.9593    0.1783  -10.9438    0.2154  -10.9523    0.2215   -0.0000  -49.5154
  7.920  -10.9112    0.1908  -10.9424    0.2063  -10.9093    0.2027  -10.9167    0.1772  -10.9012    0.2143  -10.9097    0.2204   -0.0000  -49.5154
  7.930  -10.8687    0.1898  -10.9000    0.2052  -10.8668    0.2016  -10.8742    0.1761  -10.8589    0.2132  -10.8673    0.2192   -0.0000  -49.5154
  7.940  -10.8265    0.1888  -10.8578    0.2041  -10.8246    0.2006  -10.8320    0.1750  -10.8168    0.2121  -10.8251    0.2181   -0.0000  -49.5154
  7.950  -10.7845    0.1878  -10.8159    0.2030  -10.7826    0.1995  -10.7900    0.1739  -10.7748    0.2111  -10.7831    0.2170   -0.0000  -49.5154
  7.960  -10.7426    0.1868  -10.7742    0.2019  -10.7408    0.1985  -10.7482    0.1728  -10.7332    0.2100  -10.7414    0.2159   -0.0000  -49.5154
  7.970  -10.7010    0.1858  -10.7327    0.2008  -10.6992    0.1974  -10.7066    0.1718  -10.6917    0.2090  -10.6999    0.2148   -0.0000  -49.5154
  7.980  -10.6596    0.1848  -10.6914    0.1997  -10.6578    0.1964  -10.6652    0.1707  -10.6504    0.2080  -10.6586    0.2138   -0.0000  -49.5154
  7.990  -10.6184    0.1839  -10.6503    0.1987  -10.6166    0.1954  -10.6241    0.1697  -10.6094    0.2070  -10.6174    0.2127   -0.0000  -49.5154
  8.000  -10.5775    0.1830  -10.6094    0.1976  -10.5756    0.1944  -10.5831    0.1687  -10.5685    0.2060  -10.5765    0.2117   -0.0000  -49.5154
  8.010  -10.5367    0.1820  -10.5688    0.1966  -10.5349    0.1934  -10.5424    0.1676  -10.5279    0.2050  -10.5359    0.2107   -0.0000  -49.5154
  8.020  -10.4961    0.1811  -10.5283    0.1956  -10.4943    0.1925  -10.5018    0.1666  -10.4874    0.2040  -10.4954    0.2097   -0.0000  -49.5154
  8.030  -10.4557    0.1802  -10.4881    0.1946  -10.4539    0.1915  -10.4615    0.1656  -10.4472    0.2031  -10.4551    0.2087   -0.0000  -49.5154
  8.040  -10.4155    0.1793  -10.4480    0.1936  -10.4138    0.1906  -10.4213    0.1647  -10.4071    0.2021  -10.4150    0.2077   -0.0000  -49.5154
  8.050  -10.3756    0.1785  -10.4082    0.1926  -10.3738    0.1896  -10.3814    0.1637  -10.3673    0.2012  -10.3751    0.2067   -0.0000  -49.5154
  8.060  -10.3358    0.1776  -10.3685    0.1916  -10.3340    0.1887  -10.3416    0.1627  -10.3276    0.2003  -10.3354    0.2058   -0.0000  -49.5154
  8.070  -10.2962    0.1767  -10.3291    0.1907  -10.2944    0.1878  -10.3020    0.1618  -10.2881    0.1994  -10.2959    0.2048   -0.0000  -49.5154
  8.080  -10.2568    0.1759  -10.2898    0.1897  -10.2550    0.1869  -10.2627    0.1608  -10.2489    0.1985  -10.2566    0.2039   -0.0000  -49.5154
  8.090  -10.2175    0.1751  -10.2508    0.1888  -10.2158    0.1860  -10.2235    0.1599  -10.2098    0.1977  -10.2174    0.2030   -0.0000  -49.5154
  8.100  -10.1785    0.1742  -10.2119    0.1878  -10.1767    0.1852  -10.1845    0.1589  -10.1709    0.1968  -10.1785    0.2021   -0.0000  -49.5154
  8.110  -10.1396    0.1734  -10.1732    0.1869  -10.1379    0.1843  -10.1456    0.1580  -10.1321    0.1960  -10.1397    0.2012   -0.0000  -49.5154
  8.120  -10.1009    0.1726  -10.1347    0.1860  -10.0992    0.1835  -10.1070    0.1571  -10.0936    0.1951  -10.1011    0.2004   -0.0000  -49.5154
  8.130  -10.0624    0.1719  -10.0964    0.1851  -10.0607    0.1826  -10.0685    0.1562  -10.0552    0.1943  -10.0627    0.1995   -0.0000  -49.5154
  8.140  -10.0241    0.1711  -10.0582    0.1843  -10.0223    0.1818  -10.0302    0.1553  -10.0170    0.1935  -10.0245    0.1987   -0.0000  -49.5154
  8.150   -9.9859    0.1703  -10.0203    0.1834   -9.9842    0.1810   -9.9921    0.1544   -9.9790    0.1927   -9.9864    0.1979   -0.0000  -49.5154
  8.160   -9.9479    0.1696   -9.9825    0.1825   -9.9462    0.1802   -9.9541    0.1536   -9.9411    0.1920   -9.9485    0.1971   -0.0000  -49.5154
  8.170   -9.9101    0.1689   -9.9449    0.1817   -9.9084    0.1794   -9.9163    0.1527   -9.9034    0.1912   -9.9108    0.1963   -0.0000  -49.5154
  8.180   -9.8724    0.1681   -9.9074    0.1809   -9.8707    0.1786   -9.8787    0.1518   -9.8659    0.1905   -9.8732    0.1955   -0.0000  -49.5154
  8.190   -9.8349    0.1674   -9.8702    0.1800   -9.8332    0.1778   -9.8413    0.1510   -9.8286    0.1897   -9.8358    0.1947   -0.0000  -49.5154
  8.200   -9.7975    0.1667   -9.8331    0.1792   -9.7959    0.1771   -9.8040    0.1501   -9.7914    0.1890   -9.7986    0.1940   -0.0000  -49.5154
  8.210   -9.7604    0.1660   -9.7961    0.1784   -9.7587    0.1763   -9.7668    0.1493   -9.7543    0.1883   -9.7615    0.1932   -0.0000  -49.5154
  8.220   -9.7233    0.1654   -9.7594    0.1776   -9.7216    0.1756   -9.7298    0.1485   -9.7175    0.1876   -9.7246    0.1925   -0.0000  -49.5154
  8.230   -9.6864    0.1647   -9.7228    0.1769   -9.6848    0.1749   -9.6930    0.1476   -9.6807    0.1869   -9.6879    0.1918   -0.0000  -49.5154
  8.240   -9.6497    0.1641   -9.6863    0.1761   -9.6480    0.1742   -9.6563    0.1468   -9.6442    0.1863   -9.6513    0.1911   -0.0000  -49.5154
  8.250   -9.6131    0.1634   -9.6500    0.1753   -9.6115    0.1735   -9.6198    0.1460   -9.6077    0.1856   -9.6148    0.1904   -0.0000  -49.5154
  8.260   -9.5767    0.1628   -9.6139    0.1746   -9.5750    0.1728   -9.5834    0.1452   -9.5715    0.1850   -9.5785    0.1897   -0.0000  -49.5154
  8.270   -9.5404    0.1622   -9.5779    0.1739   -9.5387    0.1721   -9.5472    0.1444   -9.5353    0.1844   -9.5423    0.1891   -0.0000  -49.5154
  8.280   -9.5042    0.1616   -9.5421    0.1731   -9.5026    0.1715   -9.5111    0.1436   -9.4994    0.1838   -9.5063    0.1885   -0.0000  -49.5154
  8.290   -9.4682    0.1610   -9.5064    0.1724   -9.4666    0.1708   -9.4751    0.1429   -9.4635    0.1832   -9.4704    0.1878   -0.0000  -49.5154
  8.300   -9.4324    0.1604   -9.4709    0.1717   -9.4307    0.1702   -9.4393    0.1421   -9.4278    0.1826   -9.4347    0.1872   -0.0000  -49.5154
  8.310   -9.3966    0.1599   -9.4355    0.1710   -9.3949    0.1696   -9.4036    0.1413   -9.3922    0.1821   -9.3991    0.1866   -0.0000  -49.5154
  8.320   -9.3610    0.1593   -9.4002    0.1704   -9.3593    0.1690   -9.3681    0.1406   -9.3568    0.1815   -9.3636    0.1861   -0.0000  -49.5154
  8.330   -9.3255    0.1588   -9.3651    0.1697   -9.3238    0.1684   -9.3327    0.1398   -9.3215    0.1810   -9.3283    0.1855   -0.0000  -49.5154
  8.340   -9.2902    0.1583   -9.3301    0.1691   -9.2885    0.1678   -9.2974    0.1391   -9.2863    0.1805   -9.2931    0.1850   -0.0000  -49.5154
  8.350   -9.2549    0.1578   -9.2953    0.1684   -9.2533    0.1672   -9.2622    0.1383   -9.2513    0.1800   -9.2580    0.1844   -0.0000  -49.5154
  8.360   -9.2198    0.1573   -9.2606    0.1678   -9.2181    0.1667   -9.2272    0.1376   -9.2164    0.1795   -9.2230    0.1839   -0.0000  -49.5154
  8.370   -9.1848    0.1568   -9.2260    0.1672   -9.1831    0.1661   -9.1922    0.1369   -9.1816    0.1790   -9.1882    0.1834   -0.0000  -49.5154
  8.380   -9.1499    0.1563   -9.1916    0.1665   -9.1483    0.1656   -9.1574    0.1362   -9.1469    0.1786   -9.1535    0.1830   -0.0000  -49.5154
  8.390   -9.1152    0.1559   -9.1573    0.1660   -9.1135    0.1651   -9.1227    0.1355   -9.1123    0.1782   -9.1189    0.1825   -0.0000  -49.5154
  8.400   -9.0805    0.1554   -9.1231    0.1654   -9.0788    0.1646   -9.0882    0.1348   -9.0779    0.1777   -9.0844    0.1821   -0.0000  -49.5154
  8.410   -9.0460    0.1550   -9.0890    0.1648   -9.0443    0.1641   -9.0537    0.1341   -9.0435    0.1774   -9.0500    0.1816   -0.0000  -49.5154
  8.420   -9.0115    0.1546   -9.0551    0.1642   -9.0098    0.1636   -9.0193    0.1334   -9.0093    0.1770   -9.0158    0.1812   -0.0000  -49.5154
  8.430   -8.9772    0.1542   -9.0213    0.1637   -8.9755    0.1631   -8.9851    0.1327   -8.9752    0.1766   -8.9816    0.1808   -0.0000  -49.5154
  8.440   -8.9429    0.1538   -8.9876    0.1631   -8.9412    0.1627   -8.9509    0.1320   -8.9411    0.1763   -8.9476    0.1805   -0.0000  -49.5154
  8.450   -8.9088    0.1535   -8.9540    0.1626   -8.9071    0.1622   -8.9169    0.1314   -8.9072    0.1760   -8.9136    0.1801   -0.0000  -49.5154
  8.460   -8.8747    0.1531   -8.9205    0.1621   -8.8730    0.1618   -8.8829    0.1307   -8.8734    0.1757   -8.8798    0.1798   -0.0000  -49.5154
  8.470   -8.8408    0.1528   -8.8871    0.1616   -8.8391    0.1614   -8.8490    0.1300   -8.8397    0.1754   -8.8460    0.1795   -0.0000  -49.5154
  8.480   -8.8069    0.1525   -8.8538    0.1611   -8.8052    0.1610   -8.8153    0.1294   -8.8060    0.1751   -8.8124    0.1792   -0.0000  -49.5154
  8.490   -8.7731    0.1522   -8.8207    0.1607   -8.7714    0.1607   -8.7816    0.1288   -8.7725    0.1749   -8.7788    0.1789   -0.0000  -49.5154
  8.500   -8.7394    0.1519   -8.7876    0.1602   -8.7376    0.1603   -8.7479    0.1281   -8.7390    0.1747   -8.7453    0.1787   -0.0000  -49.5154
  8.510   -8.7058    0.1517   -8.7547    0.1598   -8.7040    0.1600   -8.7144    0.1275   -8.7057    0.1745   -8.7119    0.1785   -0.0000  -49.5154
  8.520   -8.6722    0.1514   -8.7218    0.1593   -8.6704    0.1597   -8.6810    0.1269   -8.6724    0.1743   -8.6786    0.1783   -0.0000  -49.5154
  8.530   -8.6387    0.1512   -8.6890    0.1589   -8.6369    0.1594   -8.6476    0.1262   -8.6391    0.1741   -8.6453    0.1781   -0.0000  -49.5154
  8.540   -8.6053    0.1510   -8.6563    0.1585   -8.6035    0.1591   -8.6143    0.1256   -8.6060    0.1740   -8.6122    0.1780   -0.0000  -49.5154
  8.550   -8.5719    0.1508   -8.6237    0.1581   -8.5701    0.1588   -8.5810    0.1250   -8.5729    0.1739   -8.5791    0.1778   -0.0000  -49.5154
  8.560   -8.5386    0.1507   -8.5912    0.1577   -8.5368    0.1586   -8.5478    0.1244   -8.5399    0.1738   -8.5460    0.1777   -0.0000  -49.5154
  8.570   -8.5054    0.1506   -8.5588    0.1574   -8.5035    0.1583   -8.5147    0.1238   -8.5070    0.1738   -8.5130    0.1777   -0.0000  -49.5154
  8.580   -8.4722    0.1504   -8.5265    0.1570   -8.4703    0.1581   -8.4816    0.1232   -8.4741    0.1738   -8.4801    0.1776   -0.0000  -49.5154
  8.590   -8.4390    0.1504   -8.4942    0.1567   -8.4371    0.1579   -8.4486    0.1227   -8.4412    0.1738   -8.4473    0.1776   -0.0000  -49.5154
  8.600   -8.4059    0.1503   -8.4620    0.1564   -8.4040    0.1578   -8.4156    0.1221   -8.4085    0.1738   -8.4145    0.1776   -0.0000  -49.5154
  8.610   -8.3729    0.1503   -8.4299    0.1561   -8.3709    0.1576   -8.3827    0.1215   -8.3757    0.1739   -8.3817    0.1777   -0.0000  -49.5154
  8.620   -8.3398    0.1502   -8.3978    0.1558   -8.3379    0.1575   -8.3498    0.1210   -8.3430    0.1740   -8.3490    0.1778   -0.0000  -49.5154
  8.630   -8.3068    0.1503   -8.3658    0.1556   -8.3048    0.1574   -8.3169    0.1204   -8.3104    0.1741   -8.3163    0.1779   -0.0000  -49.5154
  8.640   -8.2738    0.1503   -8.3339    0.1553   -8.2718    0.1574   -8.2841    0.1198   -8.2778    0.1743   -8.2837    0.1780   -0.0000  -49.5154
  8.650   -8.2409    0.1504   -8.3020    0.1551   -8.2388    0.1573   -8.2513    0.1193   -8.2452    0.1745   -8.2511    0.1782   -0.0000  -49.5154
  8.660   -8.2079    0.1505   -8.2702    0.1549   -8.2058    0.1573   -8.2185    0.1188   -8.2126    0.1748   -8.2185    0.1784   -0.0000  -49.5154
  8.670   -8.1750    0.1506   -8.2384    0.1547   -8.1728    0.1573   -8.1857    0.1182   -8.1801    0.1750   -8.1859    0.1787   -0.0000  -49.5154
  8.680   -8.1420    0.1508   -8.2067    0.1546   -8.1399    0.1574   -8.1529    0.1177   -8.1475    0.1754   -8.1533    0.1790   -0.0000  -49.5154
  8.690   -8.1091    0.1510   -8.1750    0.1544   -8.1069    0.1574   -8.1201    0.1172   -8.1150    0.1757   -8.1208    0.1793   -0.0000  -49.5154
  8.700   -8.0761    0.1513   -8.1434    0.1543   -8.0739    0.1575   -8.0873    0.1167   -8.0825    0.1761   -8.0883    0.1797   -0.0000  -49.5154
  8.710   -8.0431    0.1515   -8.1118    0.1542   -8.0408    0.1577   -8.0545    0.1162   -8.0500    0.1766   -8.0557    0.1801   -0.0000  -49.5154
  8.720   -8.0101    0.1519   -8.0802    0.1541   -8.0078    0.1579   -8.0217    0.1157   -8.0174    0.1771   -8.0232    0.1806   -0.0000  -49.5154
  8.730   -7.9771    0.1522   -8.0486    0.1541   -7.9747    0.1581   -7.9889    0.1152   -7.9849    0.1776   -7.9906    0.1812   -0.0000  -49.5154
  8.740   -7.9440    0.1526   -8.0171    0.1541   -7.9416    0.1583   -7.9560    0.1147   -7.9523    0.1782   -7.9580    0.1818   -0.0000  -49.5154
  8.750   -7.9109    0.1531   -7.9856    0.1541   -7.9084    0.1586   -7.9231    0.1143   -7.9197    0.1789   -7.9254    0.1824   -0.0000  -49.5154
  8.760   -7.8777    0.1536   -7.9541    0.1541   -7.8751    0.1589   -7.8901    0.1138   -7.8871    0.1796   -7.8927    0.1831   -0.0000  -49.5154
  8.770   -7.8444    0.1542   -7.9226    0.1542   -7.8418    0.1593   -7.8571    0.1133   -7.8544    0.1804   -7.8601    0.1839   -0.0000  -49.5154
  8.780   -7.8111    0.1548   -7.8911    0.1542   -7.8084    0.1597   -7.8239    0.1129   -7.8217    0.1813   -7.8273    0.1847   -0.0000  -49.5154
  8.790   -7.7777    0.1554   -7.8596    0.1544   -7.7749    0.1602   -7.7908    0.1124   -7.7889    0.1822   -7.7945    0.1856   -0.0000  -49.5154
  8.800   -7.7442    0.1562   -7.8281    0.1545   -7.7414    0.1607   -7.7575    0.1120   -7.7561    0.1832   -7.7616    0.1866   -0.0000  -49.5154
  8.810   -7.7106    0.1570   -7.7965    0.1547   -7.7077    0.1613   -7.7241    0.1116   -7.7232    0.1843   -7.7287    0.1876   -0.0000  -49.5154
  8.820   -7.6769    0.1578   -7.7650    0.1549   -7.6739    0.1619   -7.6906    0.1112   -7.6901    0.1854   -7.6956    0.1888   -0.0000  -49.5154
  8.830   -7.6430    0.1588   -7.7334    0.1552   -7.6399    0.1626   -7.6570    0.1108   -7.6570    0.1866   -7.6625    0.1900   -0.0001  -49.5154
  8.840   -7.6090    0.1598   -7.7018    0.1555   -7.6058    0.1634   -7.6233    0.1104   -7.6238    0.1880   -7.6293    0.1913   -0.0001  -49.5154
  8.850   -7.5749    0.1609   -7.6701    0.1558   -7.5716    0.1642   -7.5894    0.1100   -7.5905    0.1894   -7.5959    0.1927   -0.0002  -49.5154
  8.860   -7.5406    0.1621   -7.6384    0.1562   -7.5371    0.1651   -7.5554    0.1096   -7.5570    0.1909   -7.5624    0.1942   -0.0005  -49.5154
  8.870   -7.5061    0.1634   -7.6066    0.1566   -7.5025    0.1661   -7.5212    0.1093   -7.5234    0.1926   -7.5288    0.1958   -0.0009  -49.5154
  8.880   -7.4714    0.1647   -7.5748    0.1571   -7.4677    0.1672   -7.4867    0.1090   -7.4896    0.1943   -7.4950    0.1976   -0.0018  -49.5154
  8.890   -7.4365    0.1662   -7.5428    0.1576   -7.4326    0.1683   -7.4521    0.1086   -7.4556    0.1962   -7.4610    0.1994   -0.0035  -49.5154
  8.900   -7.4013    0.1678   -7.5108    0.1581   -7.3973    0.1696   -7.4172    0.1083   -7.4215    0.1982   -7.4269    0.2014   -0.0067  -49.5154
  8.910   -7.3659    0.1696   -7.4787    0.1588   -7.3617    0.1709   -7.3821    0.1080   -7.3872    0.2004   -7.3925    0.2036   -0.0125  -49.5154
  8.920   -7.3302    0.1714   -7.4465    0.1595   -7.3258    0.1724   -7.3467    0.1077   -7.3526    0.2027   -7.3579    0.2059   -0.0228  -49.5154
  8.930   -7.2942    0.1734   -7.4142    0.1602   -7.2896    0.1739   -7.3111    0.1075   -7.3178    0.2052   -7.3231    0.2083   -0.0407  -49.5154
  8.940   -7.2579    0.1756   -7.3817    0.1610   -7.2531    0.1756   -7.2751    0.1072   -7.2827    0.2078   -7.2880    0.2110   -0.0713  -49.5155
  8.950   -7.2212    0.1779   -7.3491    0.1619   -7.2161    0.1775   -7.2387    0.1070   -7.2474    0.2107   -7.2527    0.2138   -0.1225  -49.5155
  8.960   -7.1842    0.1804   -7.3164    0.1628   -7.1788    0.1795   -7.2020    0.1068   -7.2118    0.2137   -7.2170    0.2168   -0.2064  -49.5156
  8.970   -7.1468    0.1831   -7.2835    0.1639   -7.1411    0.1816   -7.1648    0.1066   -7.1758    0.2170   -7.1810    0.2201   -0.3411  -49.5157
  8.980   -7.1089    0.1860   -7.2504    0.1650   -7.1029    0.1839   -7.1273    0.1065   -7.1395    0.2205   -7.1447    0.2236   -0.5531  -49.5159
  8.990   -7.0705    0.1892   -7.2171    0.1662   -7.0641    0.1864   -7.0892    0.1063   -7.1027    0.2243   -7.1080    0.2274   -0.8798  -49.5162
  9.000   -7.0316    0.1926   -7.1835    0.1674   -7.0249    0.1891   -7.0506    0.1063   -7.0656    0.2284   -7.0708    0.2314   -1.3740  -49.5167
  9.010   -6.9922    0.1963   -7.1498    0.1688   -6.9850    0.1920   -7.0115    0.1062   -7.0281    0.2327   -7.0333    0.2357   -2.1075  -49.5175
  9.020   -6.9522    0.2002   -7.1158    0.1703   -6.9445    0.1951   -6.9717    0.1062   -6.9900    0.2374   -6.9952    0.2404   -3.1774  -49.5187
  9.030   -6.9115    0.2045   -7.0816    0.1719   -6.9033    0.1985   -6.9313    0.1062   -6.9515    0.2425   -6.9567    0.2455   -4.7128  -49.5204
  9.040   -6.8702    0.2092   -7.0470    0.1737   -6.8613    0.2022   -6.8901    0.1063   -6.9124    0.2480   -6.9175    0.2509   -6.8843  -49.5229
  9.050   -6.8280    0.2142   -7.0121    0.1755   -6.8185    0.2062   -6.8482    0.1064   -6.8727    0.2539   -6.8778    0.2568   -9.9154  -49.5266
  9.060   -6.7851    0.2197   -6.9769    0.1776   -6.7748    0.2106   -6.8054    0.1066   -6.8323    0.2602   -6.8375    0.2632  -14.0978  -49.5318
  9.070   -6.7413    0.2257   -6.9414    0.1797   -6.7301    0.2153   -6.7617    0.1068   -6.7913    0.2672   -6.7964    0.2701  -19.8076  -49.5390
  9.080   -6.6965    0.2322   -6.9054    0.1820   -6.6844    0.2204   -6.7169    0.1071   -6.7495    0.2746   -6.7546    0.2776  -27.5212  -49.5492
  9.090   -6.6507    0.2393   -6.8691    0.1845   -6.6375    0.2261   -6.6711    0.1075   -6.7069    0.2828   -6.7120    0.2857  -37.8245  -49.5631
  9.100   -6.6038    0.2471   -6.8322    0.1872   -6.5893    0.2322   -6.6240    0.1080   -6.6634    0.2916   -6.6685    0.2945  -51.4055  -49.5819
  9.110   -6.5556    0.2556   -6.7949    0.1901   -6.5398    0.2389   -6.5755    0.1086   -6.6189    0.3013   -6.6240    0.3042  -69.0193  -49.6073
  9.120   -6.5061    0.2650   -6.7571    0.1933   -6.4887    0.2463   -6.5256    0.1094   -6.5735    0.3119   -6.5786    0.3147  -91.4137  -49.6409
  9.130   -6.4552    0.2752   -6.7187    0.1966   -6.4360    0.2544   -6.4740    0.1103   -6.5269    0.3234   -6.5320    0.3262 -119.2106  -49.6847
  9.140   -6.4026    0.2866   -6.6797    0.2003   -6.3813    0.2633   -6.4206    0.1113   -6.4791    0.3360   -6.4842    0.3389 -152.7484  -49.7409
  9.150   -6.3484    0.2991   -6.6400    0.2042   -6.3247    0.2732   -6.3652    0.1125   -6.4301    0.3500   -6.4351    0.3528 -191.9085  -49.8114
  9.160   -6.2923    0.3130   -6.5996    0.2085   -6.2658    0.2841   -6.3076    0.1140   -6.3796    0.3653   -6.3846    0.3681 -235.9610  -49.8981
  9.170   -6.2341    0.3285   -6.5585    0.2131   -6.2044    0.2962   -6.2475    0.1157   -6.3276    0.3822   -6.3326    0.3850 -283.4794  -50.0023
  9.180   -6.1737    0.3457   -6.5165    0.2180   -6.1402    0.3097   -6.1846    0.1178   -6.2739    0.4010   -6.2790    0.4038 -332.3626  -50.1244
  9.190   -6.1108    0.3649   -6.4737    0.2234   -6.0728    0.3248   -6.1185    0.1202   -6.2185    0.4219   -6.2236    0.4246 -379.9890  -50.2641
  9.200   -6.0452    0.3865   -6.4300    0.2292   -6.0020    0.3418   -6.0490    0.1231   -6.1611    0.4451   -6.1662    0.4479 -423.4917  -50.4197
  9.210   -5.9767    0.4108   -6.3852    0.2355   -5.9272    0.3610   -5.9754    0.1265   -6.1017    0.4712   -6.1068    0.4739 -460.1095  -50.5888
  9.220   -5.9049    0.4383   -6.3393    0.2423   -5.8479    0.3827   -5.8973    0.1306   -6.0401    0.5004   -6.0451    0.5031 -487.5450  -50.7679
  9.230   -5.8296    0.4694   -6.2922    0.2496   -5.7636    0.4075   -5.8139    0.1354   -5.9760    0.5333   -5.9811    0.5360 -504.2554  -50.9532
  9.240   -5.7505    0.5049   -6.2438    0.2575   -5.6735    0.4359   -5.7244    0.1413   -5.9095    0.5705   -5.9145    0.5732 -509.6216  -51.1405
  9.250   -5.6671    0.5455   -6.1939    0.2662   -5.5768    0.4686   -5.6278    0.1484   -5.8402    0.6129   -5.8453    0.6155 -503.9750  -51.3257
  9.260   -5.5791    0.5922   -6.1425    0.2755   -5.4724    0.5066   -5.5231    0.1572   -5.7682    0.6612   -5.7733    0.6638 -488.5015  -51.5053
  9.270   -5.4861    0.6461   -6.0894    0.2857   -5.3593    0.5510   -5.4087    0.1681   -5.6934    0.7166   -5.6985    0.7192 -465.0684  -51.6762
  9.280   -5.3879    0.7087   -6.0344    0.2968   -5.2358    0.6034   -5.2828    0.1818   -5.6157    0.7804   -5.6209    0.7830 -436.0276  -51.8364
  9.290   -5.2841    0.7817   -5.9775    0.3087   -5.1003    0.6660   -5.1431    0.1991   -5.5356    0.8543   -5.5407    0.8569 -404.0373  -51.9849
  9.300   -5.1746    0.8672   -5.9185    0.3216   -4.9505    0.7413   -4.9869    0.2214   -5.4533    0.9403   -5.4584    0.9429 -371.9220  -52.1216
  9.310   -5.0594    0.9679   -5.8571    0.3353   -4.7838    0.8331   -4.8102    0.2505   -5.3696    1.0408   -5.3748    1.0434 -342.5696  -52.2475
  9.320   -4.9388    1.0869   -5.7931    0.3499   -4.5970    0.9468   -4.6083    0.2891   -5.2860    1.1588   -5.2912    1.1613 -318.8573  -52.3646
  9.330   -4.8135    1.2281   -5.7262    0.3651   -4.3860    1.0898   -4.3748    0.3415   -5.2046    1.2977   -5.2099    1.3002 -303.6137  -52.4762
  9.340   -4.6848    1.3961   -5.6561    0.3806   -4.1463    1.2730   -4.1010    0.4141   -5.1288    1.4617   -5.1341    1.4642 -299.6825  -52.5863
  9.350   -4.5549    1.5963   -5.5822    0.3955   -3.8727    1.5129   -3.7753    0.5178   -5.0638    1.6556   -5.0691    1.6580 -310.2481  -52.7004
  9.360   -4.4267    1.8355   -5.5036    0.4087   -3.5602    1.8352   -3.3824    0.6703   -5.0173    1.8843   -5.0226    1.8868 -339.6312  -52.8252
  9.370   -4.3036    2.1220   -5.4184    0.4178   -3.2074    2.2807   -2.9020    0.9029   -5.0008    2.1532   -5.0062    2.1557 -394.5720  -52.9702
  9.380   -4.1898    2.4686   -5.3229    0.4191   -2.8243    2.9162   -2.3109    1.2727   -5.0315    2.4668   -5.0370    2.4694 -485.6822  -53.1487
  9.390   -4.0918    2.8980   -5.2091    0.4070   -2.4571    3.8508   -1.5936    1.8863   -5.1360    2.8278   -5.1416    2.8304 -629.0527  -53.3798
  9.400   -4.0296    3.4563   -5.0579    0.3749   -2.2548    5.2491   -0.7881    2.9422   -5.3592    3.2306   -5.3651    3.2334 -847.4715  -53.6913
  9.410   -4.0843    4.2237   -4.8280    0.3273   -2.6338    7.2667   -0.1434    4.7587   -5.7777    3.6362   -5.7842    3.6392 *********  -54.1185
  9.420   -4.5113    5.2355   -4.4549    0.3239   -4.4621    9.6069   -0.4717    7.5198   -6.4782    3.8907   -6.4858    3.8934 *********  -54.7008
  9.430   -5.6750    6.1155   -3.9559    0.5326   -8.2239   10.5772   -2.9522   10.1499   -7.3326    3.6788   -7.3414    3.6802 *********  -55.5273
  9.440   -7.2371    6.1164   -3.5727    1.0227  -11.7658    8.5984   -6.6757   10.4099   -7.8262    2.9932   -7.8349    2.9925 *********  -56.6897
  9.450   -8.3223    5.3829   -3.4329    1.5712  -12.9222    5.5014   -9.1076    8.6859   -7.8063    2.3514   -7.8135    2.3492 *********  -57.8318
  9.460   -8.8230    4.5597   -3.4091    2.0531  -12.5014    3.1934   -9.9740    6.8321   -7.5831    1.9768   -7.5888    1.9745 *********  -58.6677
  9.470   -9.0079    3.8867   -3.4127    2.5078  -11.6350    1.8153  -10.0898    5.4905   -7.3413    1.7968   -7.3461    1.7946 *********  -59.3718
  9.480   -9.0540    3.3677   -3.4390    2.9922  -10.7674    1.0365   -9.9649    4.6102   -7.1236    1.7374   -7.1276    1.7354 *********  -60.0599
  9.490   -9.0427    2.9654   -3.5230    3.5401  -10.0051    0.6115   -9.8098    4.0391   -6.9389    1.7673   -6.9423    1.7655 *********  -60.7521
  9.500   -9.0124    2.6460   -3.7204    4.1585   -9.3569    0.4073   -9.7037    3.6552   -6.8006    1.8748   -6.8036    1.8734 *********  -61.4400
  9.510   -8.9826    2.3815   -4.0993    4.8179   -8.8166    0.3559   -9.6737    3.3677   -6.7332    2.0481   -6.7357    2.0470 *********  -62.1060
  9.520   -8.9609    2.1469   -4.7188    5.4377   -8.3863    0.4176   -9.7171    3.1034   -6.7665    2.2598   -6.7686    2.2590 *********  -62.7356
  9.530   -8.9430    1.9216   -5.5861    5.8860   -8.0771    0.5553   -9.8034    2.8056   -6.9195    2.4592   -6.9214    2.4589 *********  -63.3212
  9.540   -8.9156    1.6942   -6.6119    6.0262   -7.8947    0.7217   -9.8792    2.4479   -7.1776    2.5823   -7.1793    2.5824 *********  -63.8622
  9.550   -8.8637    1.4674   -7.6221    5.8014   -7.8230    0.8657   -9.8905    2.0458   -7.4851    2.5828   -7.4868    2.5833 *********  -64.3612
  9.560   -8.7810    1.2541   -8.4449    5.2794   -7.8228    0.9531   -9.8125    1.6446   -7.7707    2.4602   -7.7724    2.4612 *********  -64.8208
  9.570   -8.6726    1.0668   -8.9977    4.6038   -7.8502    0.9779   -9.6569    1.2881   -7.9850    2.2538   -7.9867    2.2551 *********  -65.2424
  9.580   -8.5498    0.9111   -9.2941    3.9096   -7.8745    0.9543   -9.4545    0.9984   -8.1145    2.0125   -8.1163    2.0141 *********  -65.6257
  9.590   -8.4229    0.7857   -9.3971    3.2779   -7.8820    0.9019   -9.2350    0.7760   -8.1705    1.7730   -8.1724    1.7748 -936.1274  -65.9697
  9.600   -8.2989    0.6860   -9.3739    2.7403   -7.8704    0.8366   -9.0186    0.6103   -8.1727    1.5548   -8.1748    1.5567 -826.6533  -66.2735
  9.610   -8.1813    0.6064   -9.2774    2.2982   -7.8429    0.7685   -8.8154    0.4884   -8.1396    1.3646   -8.1418    1.3666 -716.2618  -66.5367
  9.620   -8.0714    0.5423   -9.1429    1.9404   -7.8036    0.7032   -8.6296    0.3988   -8.0849    1.2026   -8.0873    1.2047 -607.5973  -66.7600
  9.630   -7.9696    0.4900   -8.9920    1.6522   -7.7564    0.6431   -8.4617    0.3323   -8.0183    1.0659   -8.0208    1.0681 -503.6469  -66.9451
  9.640   -7.8752    0.4467   -8.8374    1.4196   -7.7044    0.5891   -8.3104    0.2825   -7.9457    0.9509   -7.9484    0.9531 -407.2630  -67.0948
  9.650   -7.7877    0.4104   -8.6860    1.2309   -7.6499    0.5411   -8.1740    0.2447   -7.8711    0.8538   -7.8738    0.8560 -320.7920  -67.2127
  9.660   -7.7063    0.3796   -8.5413    1.0768   -7.5943    0.4987   -8.0507    0.2156   -7.7965    0.7715   -7.7993    0.7737 -245.8199  -67.3030
  9.670   -7.6303    0.3532   -8.4048    0.9499   -7.5386    0.4613   -7.9387    0.1929   -7.7235    0.7013   -7.7264    0.7035 -183.0538  -67.3703
  9.680   -7.5592    0.3302   -8.2770    0.8446   -7.4835    0.4283   -7.8365    0.1749   -7.6527    0.6412   -7.6556    0.6434 -132.3439  -67.4189
  9.690   -7.4923    0.3101   -8.1578    0.7564   -7.4295    0.3992   -7.7428    0.1606   -7.5845    0.5892   -7.5875    0.5914  -92.8221  -67.4530
  9.700   -7.4292    0.2924   -8.0467    0.6820   -7.3768    0.3733   -7.6563    0.1489   -7.5190    0.5442   -7.5220    0.5464  -63.1154  -67.4762
  9.710   -7.3695    0.2767   -7.9432    0.6189   -7.3255    0.3504   -7.5762    0.1393   -7.4563    0.5048   -7.4593    0.5070  -41.5831  -67.4915
  9.720   -7.3129    0.2626   -7.8466    0.5648   -7.2756    0.3299   -7.5016    0.1314   -7.3962    0.4703   -7.3992    0.4724  -26.5337  -67.5012
  9.730   -7.2589    0.2500   -7.7563    0.5182   -7.2273    0.3115   -7.4319    0.1248   -7.3387    0.4398   -7.3417    0.4419  -16.3914  -67.5073
  9.740   -7.2074    0.2386   -7.6717    0.4778   -7.1805    0.2951   -7.3664    0.1191   -7.2835    0.4127   -7.2866    0.4148   -9.8001  -67.5109
  9.750   -7.1582    0.2283   -7.5923    0.4426   -7.1351    0.2802   -7.3048    0.1143   -7.2306    0.3886   -7.2337    0.3907   -5.6694  -67.5130
  9.760   -7.1109    0.2189   -7.5176    0.4117   -7.0911    0.2668   -7.2465    0.1102   -7.1799    0.3669   -7.1830    0.3691   -3.1728  -67.5141
  9.770   -7.0656    0.2104   -7.4471    0.3845   -7.0485    0.2546   -7.1912    0.1066   -7.1311    0.3475   -7.1342    0.3496   -1.7174  -67.5148
  9.780   -7.0219    0.2025   -7.3804    0.3604   -7.0071    0.2436   -7.1387    0.1034   -7.0841    0.3300   -7.0872    0.3321   -0.8990  -67.5151
  9.790   -6.9797    0.1953   -7.3172    0.3390   -6.9669    0.2335   -7.0885    0.1007   -7.0388    0.3141   -7.0419    0.3162   -0.4550  -67.5152
  9.800   -6.9390    0.1886   -7.2572    0.3199   -6.9278    0.2242   -7.0406    0.0982   -6.9951    0.2997   -6.9982    0.3017   -0.2227  -67.5153
  9.810   -6.8996    0.1824   -7.2000    0.3027   -6.8899    0.2157   -6.9946    0.0960   -6.9528    0.2865   -6.9560    0.2886   -0.1054  -67.5154
  9.820   -6.8614    0.1767   -7.1455    0.2872   -6.8529    0.2080   -6.9505    0.0940   -6.9120    0.2745   -6.9151    0.2765   -0.0482  -67.5154
  9.830   -6.8243    0.1714   -7.0933    0.2732   -6.8169    0.2008   -6.9080    0.0923   -6.8724    0.2634   -6.8756    0.2655   -0.0213  -67.5154
  9.840   -6.7883    0.1665   -7.0434    0.2606   -6.7818    0.1941   -6.8670    0.0906   -6.8340    0.2533   -6.8372    0.2553   -0.0091  -67.5154
  9.850   -6.7533    0.1619   -6.9954    0.2490   -6.7476    0.1880   -6.8275    0.0892   -6.7967    0.2439   -6.7999    0.2459   -0.0038  -67.5154
  9.860   -6.7191    0.1576   -6.9493    0.2385   -6.7141    0.1822   -6.7892    0.0878   -6.7605    0.2352   -6.7636    0.2373   -0.0015  -67.5154
  9.870   -6.6859    0.1536   -6.9050    0.2289   -6.6815    0.1769   -6.7521    0.0865   -6.7252    0.2272   -6.7284    0.2292   -0.0006  -67.5154
  9.880   -6.6534    0.1498   -6.8621    0.2201   -6.6495    0.1720   -6.7161    0.0854   -6.6908    0.2198   -6.6940    0.2218   -0.0002  -67.5154
  9.890   -6.6217    0.1462   -6.8208    0.2120   -6.6183    0.1674   -6.6811    0.0843   -6.6573    0.2128   -6.6605    0.2149   -0.0001  -67.5154
  9.900   -6.5906    0.1429   -6.7808    0.2045   -6.5877    0.1630   -6.6471    0.0833   -6.6246    0.2064   -6.6278    0.2084   -0.0000  -67.5154
  9.910   -6.5603    0.1397   -6.7421    0.1976   -6.5577    0.1590   -6.6139    0.0824   -6.5927    0.2004   -6.5959    0.2024   -0.0000  -67.5154
  9.920   -6.5306    0.1367   -6.7045    0.1912   -6.5283    0.1552   -6.5816    0.0815   -6.5615    0.1947   -6.5647    0.1967   -0.0000  -67.5154
  9.930   -6.5014    0.1339   -6.6680    0.1852   -6.4995    0.1516   -6.5501    0.0807   -6.5309    0.1894   -6.5341    0.1914   -0.0000  -67.5154
  9.940   -6.4729    0.1313   -6.6325    0.1797   -6.4711    0.1482   -6.5193    0.0799   -6.5010    0.1845   -6.5042    0.1864   -0.0000  -67.5154
  9.950   -6.4448    0.1287   -6.5980    0.1746   -6.4433    0.1450   -6.4891    0.0791   -6.4717    0.1798   -6.4749    0.1818   -0.0000  -67.5154
  9.960   -6.4173    0.1263   -6.5644    0.1698   -6.4160    0.1420   -6.4596    0.0784   -6.4430    0.1754   -6.4462    0.1774   -0.0000  -67.5154
  9.970   -6.3903    0.1240   -6.5316    0.1653   -6.3891    0.1392   -6.4308    0.0778   -6.4148    0.1713   -6.4180    0.1732   -0.0000  -67.5154
  9.980   -6.3637    0.1219   -6.4997    0.1611   -6.3627    0.1365   -6.4025    0.0771   -6.3871    0.1674   -6.3903    0.1693   -0.0000  -67.5154
  9.990   -6.3375    0.1198   -6.4684    0.1571   -6.3367    0.1339   -6.3747    0.0765   -6.3600    0.1637   -6.3631    0.1656   -0.0000  -67.5154
 10.000   -6.3118    0.1178   -6.4378    0.1534   -6.3111    0.1315   -6.3474    0.0759   -6.3333    0.1602   -6.3364    0.1621   -0.0000  -67.5154
