# Macroscopic dielectric function obtained with the BS equation.
#  RPA L0 with KS energies and KS wavefunctions     LOCAL FIELD EFFECTS INCLUDED
# RESONANT-ONLY calculation
# Coulomb term constructed with full W(G1,G2)
# Scissor operator energy =  0.8000 [eV]
# nstates included in the diagonalization = 96
# npweps  = 113
# npwwfn  = 259
# nbands  = 8
# loband  = 2
# nkibz   = 3
# nkbz    = 8
# Lorentzian broadening =  0.0000 [eV]
# List of q-points for the optical limit:
# q =  0.938821, 0.000000, 0.000000, [Reduced coords] 
# q =  0.000000, 0.938821, 0.000000, [Reduced coords] 
# q =  0.000000, 0.000000, 0.938821, [Reduced coords] 
# q =  0.000000, 0.813043, 0.813043, [Reduced coords] 
# q =  0.813043, 0.000000, 0.813043, [Reduced coords] 
# q =  0.813043, 0.813043, 0.000000, [Reduced coords] 
# omega [eV]    RE(eps(q=1)) IM(eps(q=1) RE(eps(q=2) ) ... DOS   IDOS
  0.000   57.6029    0.4340   57.4872    0.5789   57.5069    0.5741   57.5249    0.3953   57.7107    0.5276   57.7143    0.5351   -0.0000   -0.0000
  0.010   57.6034    0.4528   57.4875    0.5982   57.5072    0.5934   57.5255    0.4143   57.7111    0.5475   57.7147    0.5550   -0.0000   -0.0000
  0.020   57.6052    0.4717   57.4890    0.6176   57.5087    0.6128   57.5274    0.4334   57.7128    0.5675   57.7163    0.5750   -0.0000   -0.0000
  0.030   57.6083    0.4906   57.4918    0.6370   57.5115    0.6322   57.5305    0.4525   57.7157    0.5874   57.7192    0.5950   -0.0000   -0.0000
  0.040   57.6126    0.5095   57.4958    0.6565   57.5155    0.6516   57.5348    0.4716   57.7198    0.6074   57.7234    0.6150   -0.0000   -0.0000
  0.050   57.6181    0.5285   57.5011    0.6760   57.5207    0.6711   57.5404    0.4908   57.7252    0.6275   57.7287    0.6350   -0.0000   -0.0000
  0.060   57.6249    0.5475   57.5075    0.6956   57.5271    0.6907   57.5472    0.5100   57.7318    0.6475   57.7354    0.6552   -0.0000   -0.0000
  0.070   57.6329    0.5665   57.5153    0.7152   57.5348    0.7103   57.5553    0.5292   57.7397    0.6677   57.7433    0.6753   -0.0000   -0.0000
  0.080   57.6421    0.5856   57.5242    0.7348   57.5438    0.7299   57.5646    0.5485   57.7489    0.6879   57.7524    0.6955   -0.0000   -0.0000
  0.090   57.6526    0.6048   57.5344    0.7545   57.5539    0.7496   57.5752    0.5678   57.7592    0.7081   57.7628    0.7158   -0.0000   -0.0000
  0.100   57.6644    0.6239   57.5458    0.7743   57.5653    0.7693   57.5870    0.5872   57.7709    0.7284   57.7744    0.7361   -0.0000   -0.0000
  0.110   57.6774    0.6432   57.5585    0.7941   57.5780    0.7891   57.6000    0.6066   57.7838    0.7487   57.7873    0.7564   -0.0000   -0.0000
  0.120   57.6916    0.6625   57.5724    0.8140   57.5918    0.8090   57.6143    0.6261   57.7979    0.7691   57.8014    0.7768   -0.0000   -0.0000
  0.130   57.7071    0.6818   57.5875    0.8339   57.6070    0.8289   57.6298    0.6456   57.8133    0.7896   57.8168    0.7973   -0.0000   -0.0000
  0.140   57.7239    0.7012   57.6039    0.8539   57.6233    0.8489   57.6466    0.6652   57.8300    0.8101   57.8335    0.8179   -0.0000   -0.0000
  0.150   57.7419    0.7207   57.6216    0.8740   57.6410    0.8690   57.6646    0.6848   57.8479    0.8307   57.8514    0.8385   -0.0000   -0.0000
  0.160   57.7611    0.7402   57.6404    0.8941   57.6598    0.8891   57.6839    0.7045   57.8671    0.8514   57.8706    0.8592   -0.0000   -0.0000
  0.170   57.7816    0.7598   57.6606    0.9144   57.6800    0.9094   57.7045    0.7243   57.8875    0.8721   57.8911    0.8800   -0.0000   -0.0000
  0.180   57.8034    0.7795   57.6820    0.9347   57.7013    0.9297   57.7263    0.7441   57.9092    0.8929   57.9128    0.9008   -0.0000   -0.0000
  0.190   57.8265    0.7992   57.7046    0.9550   57.7240    0.9500   57.7494    0.7640   57.9322    0.9138   57.9358    0.9217   -0.0000   -0.0000
  0.200   57.8508    0.8190   57.7286    0.9755   57.7479    0.9705   57.7737    0.7840   57.9565    0.9348   57.9600    0.9427   -0.0000   -0.0000
  0.210   57.8764    0.8389   57.7537    0.9961   57.7730    0.9910   57.7994    0.8040   57.9820    0.9559   57.9856    0.9638   -0.0000   -0.0000
  0.220   57.9033    0.8589   57.7802    1.0167   57.7995    1.0117   57.8262    0.8242   58.0089    0.9771   58.0124    0.9850   -0.0000   -0.0000
  0.230   57.9314    0.8789   57.8079    1.0375   57.8272    1.0324   57.8544    0.8444   58.0370    0.9983   58.0405    1.0063   -0.0000   -0.0000
  0.240   57.9608    0.8991   57.8369    1.0583   57.8561    1.0532   57.8839    0.8647   58.0664    1.0196   58.0699    1.0276   -0.0000   -0.0000
  0.250   57.9916    0.9193   57.8671    1.0792   57.8864    1.0741   57.9146    0.8851   58.0970    1.0411   58.1006    1.0491   -0.0000   -0.0000
  0.260   58.0236    0.9396   57.8987    1.1002   57.9179    1.0952   57.9466    0.9055   58.1290    1.0626   58.1326    1.0707   -0.0000   -0.0000
  0.270   58.0569    0.9600   57.9315    1.1214   57.9508    1.1163   57.9799    0.9261   58.1623    1.0843   58.1658    1.0923   -0.0000   -0.0000
  0.280   58.0915    0.9806   57.9657    1.1426   57.9849    1.1375   58.0146    0.9468   58.1969    1.1060   58.2004    1.1141   -0.0000   -0.0000
  0.290   58.1274    1.0012   58.0011    1.1640   58.0203    1.1589   58.0505    0.9676   58.2328    1.1279   58.2363    1.1360   -0.0000   -0.0000
  0.300   58.1646    1.0219   58.0378    1.1855   58.0570    1.1803   58.0877    0.9884   58.2700    1.1499   58.2736    1.1580   -0.0000   -0.0000
  0.310   58.2032    1.0427   58.0758    1.2070   58.0950    1.2019   58.1263    1.0094   58.3086    1.1720   58.3121    1.1801   -0.0000   -0.0000
  0.320   58.2430    1.0637   58.1152    1.2288   58.1344    1.2236   58.1661    1.0305   58.3484    1.1942   58.3520    1.2023   -0.0000   -0.0000
  0.330   58.2842    1.0847   58.1559    1.2506   58.1750    1.2454   58.2073    1.0517   58.3896    1.2165   58.3932    1.2247   -0.0000   -0.0000
  0.340   58.3267    1.1059   58.1978    1.2725   58.2170    1.2674   58.2498    1.0730   58.4322    1.2390   58.4357    1.2472   -0.0000   -0.0000
  0.350   58.3706    1.1272   58.2411    1.2946   58.2603    1.2894   58.2937    1.0945   58.4760    1.2616   58.4796    1.2698   -0.0000   -0.0000
  0.360   58.4158    1.1486   58.2858    1.3168   58.3049    1.3116   58.3389    1.1160   58.5213    1.2843   58.5248    1.2926   -0.0000   -0.0000
  0.370   58.4623    1.1702   58.3318    1.3392   58.3509    1.3340   58.3854    1.1377   58.5679    1.3072   58.5714    1.3155   -0.0000   -0.0000
  0.380   58.5102    1.1918   58.3791    1.3617   58.3982    1.3565   58.4333    1.1596   58.6158    1.3302   58.6193    1.3385   -0.0000   -0.0000
  0.390   58.5595    1.2137   58.4278    1.3843   58.4469    1.3791   58.4826    1.1815   58.6651    1.3534   58.6687    1.3617   -0.0000   -0.0000
  0.400   58.6101    1.2356   58.4778    1.4071   58.4970    1.4019   58.5332    1.2036   58.7158    1.3767   58.7193    1.3850   -0.0000   -0.0000
  0.410   58.6622    1.2577   58.5292    1.4301   58.5484    1.4248   58.5852    1.2258   58.7679    1.4001   58.7714    1.4085   -0.0000   -0.0000
  0.420   58.7156    1.2799   58.5820    1.4532   58.6011    1.4479   58.6386    1.2482   58.8213    1.4238   58.8249    1.4321   -0.0000   -0.0000
  0.430   58.7704    1.3023   58.6362    1.4764   58.6553    1.4712   58.6933    1.2707   58.8762    1.4475   58.8797    1.4559   -0.0000   -0.0000
  0.440   58.8265    1.3248   58.6917    1.4999   58.7109    1.4946   58.7495    1.2934   58.9325    1.4715   58.9360    1.4799   -0.0000   -0.0000
  0.450   58.8842    1.3475   58.7487    1.5234   58.7678    1.5181   58.8071    1.3162   58.9902    1.4956   58.9937    1.5040   -0.0000   -0.0000
  0.460   58.9432    1.3704   58.8071    1.5472   58.8262    1.5419   58.8661    1.3392   59.0493    1.5199   59.0528    1.5283   -0.0000   -0.0000
  0.470   59.0036    1.3934   58.8668    1.5711   58.8859    1.5658   58.9265    1.3623   59.1098    1.5443   59.1133    1.5528   -0.0000   -0.0000
  0.480   59.0655    1.4166   58.9280    1.5952   58.9471    1.5899   58.9884    1.3856   59.1718    1.5689   59.1753    1.5774   -0.0000   -0.0000
  0.490   59.1288    1.4399   58.9907    1.6195   59.0098    1.6142   59.0517    1.4091   59.2352    1.5938   59.2387    1.6023   -0.0000   -0.0000
  0.500   59.1936    1.4634   59.0547    1.6440   59.0738    1.6386   59.1164    1.4328   59.3001    1.6188   59.3036    1.6273   -0.0000   -0.0000
  0.510   59.2598    1.4871   59.1202    1.6687   59.1394    1.6633   59.1826    1.4566   59.3664    1.6440   59.3700    1.6525   -0.0000   -0.0000
  0.520   59.3276    1.5110   59.1872    1.6935   59.2063    1.6881   59.2503    1.4806   59.4342    1.6694   59.4378    1.6780   -0.0000   -0.0000
  0.530   59.3967    1.5351   59.2557    1.7186   59.2748    1.7132   59.3194    1.5048   59.5036    1.6950   59.5071    1.7036   -0.0000   -0.0000
  0.540   59.4674    1.5594   59.3256    1.7438   59.3447    1.7384   59.3901    1.5292   59.5744    1.7208   59.5779    1.7294   -0.0000   -0.0000
  0.550   59.5396    1.5838   59.3970    1.7693   59.4161    1.7639   59.4622    1.5538   59.6467    1.7468   59.6503    1.7554   -0.0000   -0.0000
  0.560   59.6133    1.6085   59.4699    1.7950   59.4890    1.7896   59.5359    1.5786   59.7205    1.7730   59.7241    1.7817   -0.0000   -0.0000
  0.570   59.6885    1.6333   59.5443    1.8209   59.5635    1.8154   59.6110    1.6036   59.7959    1.7995   59.7995    1.8082   -0.0000   -0.0000
  0.580   59.7653    1.6584   59.6203    1.8470   59.6394    1.8416   59.6878    1.6288   59.8728    1.8261   59.8764    1.8349   -0.0000   -0.0000
  0.590   59.8436    1.6837   59.6978    1.8734   59.7169    1.8679   59.7660    1.6542   59.9513    1.8530   59.9548    1.8618   -0.0000   -0.0000
  0.600   59.9234    1.7092   59.7768    1.9000   59.7959    1.8945   59.8458    1.6798   60.0313    1.8802   60.0349    1.8890   -0.0000   -0.0000
  0.610   60.0049    1.7349   59.8574    1.9268   59.8765    1.9213   59.9272    1.7057   60.1129    1.9076   60.1165    1.9164   -0.0000   -0.0000
  0.620   60.0879    1.7609   59.9395    1.9538   59.9587    1.9483   60.0101    1.7318   60.1961    1.9352   60.1997    1.9440   -0.0000   -0.0000
  0.630   60.1725    1.7871   60.0232    1.9811   60.0424    1.9756   60.0947    1.7581   60.2809    1.9631   60.2845    1.9719   -0.0000   -0.0000
  0.640   60.2587    1.8135   60.1086    2.0087   60.1277    2.0031   60.1809    1.7846   60.3673    1.9912   60.3709    2.0001   -0.0000   -0.0000
  0.650   60.3466    1.8402   60.1955    2.0365   60.2147    2.0309   60.2686    1.8114   60.4553    2.0196   60.4589    2.0285   -0.0000   -0.0000
  0.660   60.4360    1.8671   60.2840    2.0646   60.3032    2.0590   60.3580    1.8385   60.5450    2.0483   60.5486    2.0572   -0.0000   -0.0000
  0.670   60.5272    1.8943   60.3742    2.0929   60.3934    2.0873   60.4491    1.8658   60.6363    2.0772   60.6399    2.0861   -0.0000   -0.0000
  0.680   60.6199    1.9217   60.4661    2.1216   60.4853    2.1160   60.5418    1.8933   60.7293    2.1064   60.7329    2.1154   -0.0000   -0.0000
  0.690   60.7144    1.9495   60.5596    2.1505   60.5788    2.1448   60.6362    1.9212   60.8240    2.1359   60.8276    2.1449   -0.0000   -0.0000
  0.700   60.8106    1.9774   60.6547    2.1796   60.6740    2.1740   60.7323    1.9493   60.9204    2.1657   60.9240    2.1747   -0.0000   -0.0000
  0.710   60.9084    2.0057   60.7516    2.2091   60.7709    2.2035   60.8301    1.9776   61.0185    2.1958   61.0221    2.2048   -0.0000   -0.0000
  0.720   61.0080    2.0342   60.8502    2.2389   60.8694    2.2332   60.9296    2.0063   61.1183    2.2262   61.1219    2.2352   -0.0000   -0.0000
  0.730   61.1093    2.0630   60.9505    2.2690   60.9697    2.2633   61.0309    2.0352   61.2199    2.2569   61.2235    2.2659   -0.0000   -0.0000
  0.740   61.2124    2.0922   61.0525    2.2994   61.0718    2.2937   61.1339    2.0645   61.3232    2.2879   61.3268    2.2970   -0.0000   -0.0000
  0.750   61.3173    2.1216   61.1563    2.3301   61.1756    2.3244   61.2387    2.0940   61.4283    2.3192   61.4320    2.3283   -0.0000   -0.0000
  0.760   61.4239    2.1513   61.2619    2.3611   61.2812    2.3554   61.3452    2.1239   61.5352    2.3509   61.5389    2.3600   -0.0000   -0.0000
  0.770   61.5324    2.1814   61.3692    2.3925   61.3885    2.3867   61.4536    2.1540   61.6439    2.3829   61.6476    2.3920   -0.0000   -0.0000
  0.780   61.6427    2.2117   61.4784    2.4242   61.4977    2.4184   61.5638    2.1845   61.7545    2.4152   61.7582    2.4244   -0.0000   -0.0000
  0.790   61.7548    2.2424   61.5894    2.4562   61.6087    2.4505   61.6758    2.2153   61.8669    2.4479   61.8706    2.4571   -0.0000   -0.0000
  0.800   61.8688    2.2734   61.7022    2.4886   61.7216    2.4828   61.7897    2.2465   61.9812    2.4810   61.9849    2.4902   -0.0000   -0.0000
  0.810   61.9846    2.3048   61.8169    2.5214   61.8363    2.5156   61.9055    2.2780   62.0973    2.5144   62.1010    2.5236   -0.0000   -0.0000
  0.820   62.1024    2.3365   61.9334    2.5545   61.9529    2.5487   62.0232    2.3098   62.2154    2.5482   62.2191    2.5575   -0.0000   -0.0000
  0.830   62.2221    2.3686   62.0519    2.5880   62.0714    2.5822   62.1428    2.3420   62.3354    2.5824   62.3391    2.5917   -0.0000   -0.0000
  0.840   62.3437    2.4010   62.1723    2.6219   62.1918    2.6160   62.2643    2.3746   62.4573    2.6169   62.4611    2.6263   -0.0000   -0.0000
  0.850   62.4673    2.4339   62.2946    2.6561   62.3141    2.6503   62.3878    2.4075   62.5813    2.6519   62.5850    2.6612   -0.0000   -0.0000
  0.860   62.5929    2.4671   62.4189    2.6908   62.4384    2.6849   62.5133    2.4408   62.7072    2.6873   62.7109    2.6966   -0.0000   -0.0000
  0.870   62.7204    2.5006   62.5452    2.7259   62.5647    2.7200   62.6407    2.4745   62.8351    2.7231   62.8388    2.7324   -0.0000   -0.0000
  0.880   62.8500    2.5346   62.6735    2.7613   62.6930    2.7554   62.7702    2.5086   62.9650    2.7593   62.9688    2.7687   -0.0000   -0.0000
  0.890   62.9817    2.5690   62.8038    2.7972   62.8234    2.7913   62.9018    2.5431   63.0970    2.7959   63.1008    2.8053   -0.0000   -0.0000
  0.900   63.1154    2.6038   62.9362    2.8336   62.9558    2.8277   63.0354    2.5780   63.2311    2.8330   63.2349    2.8425   -0.0000   -0.0000
  0.910   63.2512    2.6390   63.0706    2.8704   63.0902    2.8644   63.1711    2.6134   63.3673    2.8705   63.3711    2.8800   -0.0000   -0.0000
  0.920   63.3892    2.6747   63.2071    2.9076   63.2268    2.9017   63.3089    2.6492   63.5056    2.9085   63.5094    2.9180   -0.0000   -0.0000
  0.930   63.5292    2.7108   63.3458    2.9453   63.3654    2.9393   63.4489    2.6854   63.6461    2.9470   63.6499    2.9565   -0.0000   -0.0000
  0.940   63.6715    2.7473   63.4866    2.9835   63.5063    2.9775   63.5910    2.7221   63.7887    2.9860   63.7925    2.9955   -0.0000   -0.0000
  0.950   63.8159    2.7843   63.6295    3.0221   63.6493    3.0161   63.7354    2.7592   63.9335    3.0254   63.9374    3.0350   -0.0000   -0.0000
  0.960   63.9626    2.8218   63.7747    3.0613   63.7944    3.0553   63.8819    2.7968   64.0806    3.0654   64.0844    3.0749   -0.0000   -0.0000
  0.970   64.1115    2.8597   63.9221    3.1009   63.9419    3.0949   64.0307    2.8349   64.2299    3.1058   64.2338    3.1154   -0.0000   -0.0000
  0.980   64.2627    2.8982   64.0717    3.1411   64.0915    3.1350   64.1818    2.8735   64.3816    3.1468   64.3854    3.1564   -0.0000   -0.0000
  0.990   64.4162    2.9371   64.2237    3.1817   64.2435    3.1757   64.3352    2.9125   64.5355    3.1883   64.5393    3.1980   -0.0000   -0.0000
  1.000   64.5720    2.9766   64.3779    3.2230   64.3977    3.2169   64.4909    2.9521   64.6917    3.2304   64.6956    3.2400   -0.0000   -0.0000
  1.010   64.7302    3.0166   64.5344    3.2647   64.5543    3.2586   64.6489    2.9922   64.8504    3.2730   64.8543    3.2827   -0.0000   -0.0000
  1.020   64.8908    3.0571   64.6934    3.3070   64.7133    3.3009   64.8094    3.0329   65.0114    3.3162   65.0153    3.3259   -0.0000   -0.0000
  1.030   65.0538    3.0982   64.8547    3.3499   64.8746    3.3438   64.9723    3.0741   65.1749    3.3600   65.1788    3.3697   -0.0000   -0.0000
  1.040   65.2192    3.1398   65.0184    3.3934   65.0384    3.3873   65.1376    3.1159   65.3408    3.4044   65.3448    3.4141   -0.0000   -0.0000
  1.050   65.3872    3.1820   65.1846    3.4375   65.2046    3.4313   65.3055    3.1582   65.5093    3.4494   65.5132    3.4591   -0.0000   -0.0000
  1.060   65.5577    3.2248   65.3533    3.4821   65.3734    3.4760   65.4758    3.2011   65.6802    3.4950   65.6842    3.5048   -0.0000   -0.0000
  1.070   65.7307    3.2681   65.5246    3.5274   65.5446    3.5213   65.6487    3.2447   65.8538    3.5412   65.8577    3.5510   -0.0000   -0.0000
  1.080   65.9063    3.3121   65.6983    3.5734   65.7184    3.5672   65.8242    3.2888   66.0299    3.5881   66.0339    3.5980   -0.0000   -0.0000
  1.090   66.0845    3.3568   65.8747    3.6200   65.8948    3.6138   66.0023    3.3336   66.2086    3.6357   66.2127    3.6456   -0.0000   -0.0000
  1.100   66.2654    3.4020   66.0537    3.6672   66.0739    3.6610   66.1830    3.3790   66.3901    3.6840   66.3941    3.6938   -0.0000   -0.0000
  1.110   66.4490    3.4479   66.2354    3.7152   66.2556    3.7089   66.3665    3.4251   66.5742    3.7329   66.5782    3.7428   -0.0000   -0.0000
  1.120   66.6353    3.4945   66.4197    3.7638   66.4400    3.7575   66.5527    3.4718   66.7611    3.7826   66.7651    3.7925   -0.0000   -0.0000
  1.130   66.8244    3.5418   66.6068    3.8131   66.6271    3.8069   66.7417    3.5192   66.9507    3.8330   66.9548    3.8429   -0.0000   -0.0000
  1.140   67.0163    3.5898   66.7967    3.8632   66.8170    3.8569   66.9334    3.5673   67.1432    3.8841   67.1473    3.8941   -0.0000   -0.0000
  1.150   67.2111    3.6384   66.9894    3.9140   67.0097    3.9077   67.1281    3.6162   67.3385    3.9360   67.3427    3.9460   -0.0000   -0.0000
  1.160   67.4087    3.6879   67.1849    3.9656   67.2053    3.9593   67.3256    3.6658   67.5368    3.9887   67.5409    3.9987   -0.0000   -0.0000
  1.170   67.6093    3.7380   67.3834    4.0179   67.4038    4.0116   67.5260    3.7161   67.7380    4.0422   67.7421    4.0522   -0.0000   -0.0000
  1.180   67.8129    3.7890   67.5848    4.0711   67.6052    4.0647   67.7295    3.7672   67.9421    4.0965   67.9463    4.1065   -0.0000   -0.0000
  1.190   68.0195    3.8407   67.7891    4.1251   67.8096    4.1187   67.9359    3.8191   68.1493    4.1516   68.1536    4.1617   -0.0000   -0.0000
  1.200   68.2291    3.8932   67.9965    4.1799   68.0171    4.1735   68.1454    3.8718   68.3596    4.2076   68.3639    4.2177   -0.0000   -0.0000
  1.210   68.4419    3.9465   68.2070    4.2355   68.2276    4.2291   68.3581    3.9253   68.5730    4.2645   68.5773    4.2746   -0.0000   -0.0000
  1.220   68.6578    4.0007   68.4206    4.2920   68.4412    4.2856   68.5739    3.9797   68.7896    4.3223   68.7939    4.3324   -0.0000   -0.0000
  1.230   68.8770    4.0558   68.6374    4.3495   68.6580    4.3430   68.7929    4.0349   69.0094    4.3810   69.0138    4.3911   -0.0000   -0.0000
  1.240   69.0994    4.1117   68.8573    4.4078   68.8780    4.4014   69.0151    4.0911   69.2325    4.4406   69.2369    4.4507   -0.0000   -0.0000
  1.250   69.3251    4.1686   69.0806    4.4671   69.1013    4.4606   69.2407    4.1481   69.4589    4.5012   69.4633    4.5113   -0.0000   -0.0000
  1.260   69.5541    4.2263   69.3071    4.5273   69.3279    4.5208   69.4696    4.2061   69.6887    4.5628   69.6931    4.5729   -0.0000   -0.0000
  1.270   69.7866    4.2851   69.5371    4.5885   69.5579    4.5821   69.7020    4.2650   69.9219    4.6254   69.9263    4.6356   -0.0000   -0.0000
  1.280   70.0226    4.3447   69.7704    4.6508   69.7913    4.6443   69.9378    4.3249   70.1585    4.6890   70.1630    4.6992   -0.0001   -0.0000
  1.290   70.2621    4.4054   70.0072    4.7140   70.0282    4.7075   70.1772    4.3858   70.3988    4.7537   70.4033    4.7639   -0.0001   -0.0000
  1.300   70.5051    4.4671   70.2476    4.7784   70.2686    4.7718   70.4201    4.4477   70.6426    4.8195   70.6471    4.8297   -0.0001   -0.0000
  1.310   70.7518    4.5299   70.4915    4.8438   70.5126    4.8372   70.6667    4.5107   70.8900    4.8864   70.8946    4.8966   -0.0001   -0.0000
  1.320   71.0023    4.5937   70.7391    4.9103   70.7602    4.9037   70.9170    4.5747   71.1412    4.9544   71.1458    4.9647   -0.0001   -0.0000
  1.330   71.2564    4.6587   70.9905    4.9779   71.0116    4.9713   71.1710    4.6399   71.3962    5.0236   71.4008    5.0339   -0.0001   -0.0000
  1.340   71.5144    4.7247   71.2455    5.0467   71.2667    5.0401   71.4289    4.7062   71.6550    5.0940   71.6597    5.1043   -0.0001   -0.0000
  1.350   71.7763    4.7919   71.5045    5.1168   71.5257    5.1101   71.6907    4.7736   71.9177    5.1657   71.9224    5.1760   -0.0001   -0.0000
  1.360   72.0422    4.8603   71.7673    5.1880   71.7886    5.1814   71.9564    4.8423   72.1844    5.2386   72.1891    5.2489   -0.0001   -0.0000
  1.370   72.3121    4.9299   72.0341    5.2605   72.0554    5.2538   72.2261    4.9122   72.4551    5.3128   72.4599    5.3231   -0.0002   -0.0000
  1.380   72.5861    5.0008   72.3049    5.3343   72.3263    5.3276   72.5000    4.9833   72.7299    5.3883   72.7348    5.3986   -0.0002   -0.0000
  1.390   72.8642    5.0730   72.5798    5.4094   72.6013    5.4027   72.7780    5.0557   73.0089    5.4652   73.0138    5.4755   -0.0002   -0.0000
  1.400   73.1466    5.1464   72.8590    5.4859   72.8805    5.4792   73.0603    5.1294   73.2922    5.5435   73.2971    5.5538   -0.0002   -0.0000
  1.410   73.4333    5.2212   73.1423    5.5637   73.1639    5.5570   73.3469    5.2045   73.5798    5.6232   73.5847    5.6336   -0.0002   -0.0000
  1.420   73.7244    5.2974   73.4300    5.6430   73.4516    5.6363   73.6378    5.2810   73.8718    5.7044   73.8768    5.7148   -0.0003   -0.0000
  1.430   74.0200    5.3750   73.7221    5.7237   73.7438    5.7170   73.9333    5.3589   74.1683    5.7871   74.1733    5.7975   -0.0003   -0.0000
  1.440   74.3201    5.4541   74.0187    5.8060   74.0404    5.7993   74.2333    5.4383   74.4693    5.8714   74.4744    5.8817   -0.0003   -0.0000
  1.450   74.6248    5.5347   74.3198    5.8898   74.3416    5.8830   74.5379    5.5192   74.7750    5.9572   74.7802    5.9676   -0.0004   -0.0000
  1.460   74.9343    5.6168   74.6256    5.9752   74.6474    5.9684   74.8473    5.6016   75.0855    6.0447   75.0907    6.0551   -0.0004   -0.0000
  1.470   75.2486    5.7005   74.9361    6.0622   74.9580    6.0554   75.1615    5.6856   75.4007    6.1339   75.4060    6.1443   -0.0005   -0.0000
  1.480   75.5678    5.7858   75.2515    6.1509   75.2734    6.1441   75.4806    5.7713   75.7209    6.2248   75.7262    6.2352   -0.0005   -0.0000
  1.490   75.8920    5.8728   75.5717    6.2413   75.5938    6.2345   75.8047    5.8586   76.0461    6.3175   76.0515    6.3278   -0.0006   -0.0000
  1.500   76.2213    5.9615   75.8970    6.3335   75.9191    6.3267   76.1339    5.9477   76.3764    6.4120   76.3819    6.4223   -0.0006   -0.0000
  1.510   76.5558    6.0519   76.2274    6.4275   76.2495    6.4206   76.4682    6.0385   76.7119    6.5083   76.7174    6.5187   -0.0007   -0.0000
  1.520   76.8955    6.1442   76.5630    6.5234   76.5852    6.5165   76.8079    6.1312   77.0527    6.6067   77.0583    6.6170   -0.0008   -0.0000
  1.530   77.2407    6.2383   76.9038    6.6211   76.9261    6.6143   77.1530    6.2257   77.3989    6.7069   77.4046    6.7173   -0.0009   -0.0000
  1.540   77.5913    6.3344   77.2501    6.7209   77.2725    6.7140   77.5035    6.3222   77.7506    6.8093   77.7563    6.8196   -0.0010   -0.0000
  1.550   77.9475    6.4324   77.6019    6.8227   77.6243    6.8158   77.8597    6.4207   78.1080    6.9137   78.1138    6.9240   -0.0011   -0.0000
  1.560   78.3095    6.5325   77.9593    6.9266   77.9818    6.9196   78.2216    6.5212   78.4710    7.0203   78.4769    7.0306   -0.0012   -0.0000
  1.570   78.6773    6.6346   78.3225    7.0326   78.3450    7.0256   78.5893    6.6238   78.8400    7.1291   78.8459    7.1394   -0.0014   -0.0000
  1.580   79.0510    6.7389   78.6915    7.1408   78.7141    7.1339   78.9630    6.7285   79.2148    7.2402   79.2209    7.2505   -0.0015   -0.0000
  1.590   79.4309    6.8455   79.0664    7.2513   79.0891    7.2443   79.3427    6.8355   79.5958    7.3536   79.6019    7.3639   -0.0017   -0.0000
  1.600   79.8169    6.9542   79.4475    7.3641   79.4702    7.3572   79.7287    6.9448   79.9830    7.4695   79.9892    7.4798   -0.0019   -0.0000
  1.610   80.2092    7.0654   79.8347    7.4794   79.8575    7.4724   80.1210    7.0565   80.3765    7.5878   80.3828    7.5981   -0.0021   -0.0000
  1.620   80.6080    7.1789   80.2283    7.5971   80.2512    7.5901   80.5198    7.1706   80.7765    7.7087   80.7829    7.7190   -0.0023   -0.0000
  1.630   81.0134    7.2950   80.6284    7.7174   80.6514    7.7104   80.9251    7.2872   81.1832    7.8323   81.1896    7.8426   -0.0025   -0.0000
  1.640   81.4255    7.4136   81.0351    7.8404   81.0581    7.8334   81.3372    7.4064   81.5965    7.9586   81.6031    7.9689   -0.0028   -0.0000
  1.650   81.8445    7.5349   81.4486    7.9660   81.4716    7.9590   81.7562    7.5282   82.0168    8.0877   82.0235    8.0980   -0.0031   -0.0000
  1.660   82.2706    7.6589   81.8689    8.0945   81.8921    8.0874   82.1822    7.6528   82.4441    8.2198   82.4509    8.2300   -0.0034   -0.0000
  1.670   82.7038    7.7857   82.2963    8.2258   82.3195    8.2187   82.6155    7.7803   82.8786    8.3548   82.8855    8.3650   -0.0038   -0.0000
  1.680   83.1444    7.9154   82.7309    8.3601   82.7542    8.3530   83.0560    7.9106   83.3205    8.4929   83.3275    8.5030   -0.0041   -0.0000
  1.690   83.5924    8.0481   83.1729    8.4975   83.1962    8.4904   83.5041    8.0440   83.7699    8.6341   83.7770    8.6443   -0.0046   -0.0000
  1.700   84.0482    8.1839   83.6224    8.6380   83.6458    8.6309   83.9599    8.1805   84.2269    8.7787   84.2342    8.7888   -0.0051   -0.0000
  1.710   84.5117    8.3229   84.0795    8.7818   84.1031    8.7747   84.4235    8.3202   84.6919    8.9266   84.6992    8.9367   -0.0056   -0.0000
  1.720   84.9833    8.4652   84.5446    8.9290   84.5682    8.9219   84.8951    8.4633   85.1648    9.0781   85.1723    9.0882   -0.0061   -0.0000
  1.730   85.4631    8.6109   85.0177    9.0797   85.0413    9.0726   85.3750    8.6097   85.6460    9.2332   85.6536    9.2432   -0.0068   -0.0000
  1.740   85.9513    8.7601   85.4990    9.2339   85.5227    9.2268   85.8633    8.7598   86.1356    9.3920   86.1434    9.4019   -0.0074   -0.0000
  1.750   86.4481    8.9129   85.9887    9.3919   86.0125    9.3848   86.3601    8.9134   86.6338    9.5546   86.6417    9.5646   -0.0082   -0.0000
  1.760   86.9537    9.0695   86.4870    9.5537   86.5110    9.5466   86.8658    9.0709   87.1408    9.7213   87.1488    9.7312   -0.0090   -0.0000
  1.770   87.4682    9.2300   86.9942    9.7195   87.0182    9.7123   87.3805    9.2323   87.6568    9.8920   87.6650    9.9019   -0.0099   -0.0000
  1.780   87.9920    9.3945   87.5104    9.8893   87.5344    9.8822   87.9044    9.3977   88.1821   10.0670   88.1904   10.0769   -0.0109   -0.0000
  1.790   88.5252    9.5631   88.0358   10.0635   88.0599   10.0563   88.4378    9.5673   88.7168   10.2465   88.7253   10.2563   -0.0120   -0.0000
  1.800   89.0681    9.7361   88.5707   10.2420   88.5949   10.2348   88.9808    9.7413   89.2611   10.4305   89.2698   10.4402   -0.0131   -0.0001
  1.810   89.6209    9.9134   89.1152   10.4250   89.1395   10.4179   89.5337    9.9197   89.8154   10.6192   89.8242   10.6289   -0.0144   -0.0001
  1.820   90.1838   10.0954   89.6697   10.6127   89.6941   10.6056   90.0969   10.1028   90.3798   10.8128   90.3888   10.8224   -0.0158   -0.0001
  1.830   90.7571   10.2822   90.2344   10.8053   90.2589   10.7982   90.6704   10.2907   90.9547   11.0114   90.9639   11.0210   -0.0173   -0.0001
  1.840   91.3410   10.4739   90.8095   11.0030   90.8340   10.9958   91.2546   10.4836   91.5402   11.2154   91.5496   11.2248   -0.0190   -0.0001
  1.850   91.9359   10.6707   91.3953   11.2058   91.4199   11.1987   91.8497   10.6816   92.1366   11.4247   92.1462   11.4341   -0.0208   -0.0001
  1.860   92.5420   10.8728   91.9920   11.4140   92.0167   11.4069   92.4561   10.8850   92.7442   11.6396   92.7540   11.6490   -0.0227   -0.0001
  1.870   93.1596   11.0804   92.5999   11.6279   92.6247   11.6207   93.0739   11.0940   93.3634   11.8604   93.3734   11.8697   -0.0249   -0.0001
  1.880   93.7889   11.2937   93.2194   11.8475   93.2442   11.8404   93.7036   11.3087   93.9943   12.0873   94.0045   12.0965   -0.0272   -0.0001
  1.890   94.4304   11.5129   93.8507   12.0732   93.8756   12.0661   94.3454   11.5293   94.6373   12.3204   94.6478   12.3295   -0.0297   -0.0001
  1.900   95.0842   11.7383   94.4941   12.3051   94.5191   12.2980   94.9996   11.7562   95.2928   12.5601   95.3035   12.5691   -0.0324   -0.0001
  1.910   95.7508   11.9700   95.1499   12.5435   95.1750   12.5364   95.6666   11.9896   95.9609   12.8065   95.9719   12.8154   -0.0354   -0.0001
  1.920   96.4305   12.2084   95.8185   12.7886   95.8437   12.7815   96.3467   12.2296   96.6422   13.0599   96.6534   13.0688   -0.0386   -0.0002
  1.930   97.1236   12.4536   96.5003   13.0408   96.5255   13.0336   97.0402   12.4765   97.3369   13.3206   97.3484   13.3294   -0.0421   -0.0002
  1.940   97.8305   12.7060   97.1955   13.3001   97.2208   13.2930   97.7476   12.7307   98.0454   13.5890   98.0572   13.5976   -0.0459   -0.0002
  1.950   98.5516   12.9658   97.9045   13.5671   97.9299   13.5600   98.4692   12.9924   98.7680   13.8652   98.7801   13.8737   -0.0501   -0.0002
  1.960   99.2873   13.2334   98.6278   13.8418   98.6533   13.8347   99.2054   13.2619   99.5053   14.1496   99.5177   14.1580   -0.0545   -0.0002
  1.970  100.0379   13.5090   99.3656   14.1248   99.3912   14.1177   99.9567   13.5396  100.2575   14.4425  100.2702   14.4508   -0.0593   -0.0003
  1.980  100.8039   13.7930  100.1185   14.4162  100.1441   14.4091  100.7233   13.8257  101.0250   14.7443  101.0381   14.7525   -0.0645   -0.0003
  1.990  101.5858   14.0857  100.8868   14.7164  100.9125   14.7094  101.5059   14.1206  101.8084   15.0554  101.8218   15.0635   -0.0702   -0.0003
  2.000  102.3840   14.3874  101.6710   15.0259  101.6968   15.0189  102.3047   14.4247  102.6081   15.3761  102.6219   15.3840   -0.0763   -0.0003
  2.010  103.1989   14.6987  102.4715   15.3450  102.4973   15.3379  103.1204   14.7384  103.4245   15.7068  103.4387   15.7146   -0.0829   -0.0004
  2.020  104.0311   15.0198  103.2888   15.6740  103.3147   15.6670  103.9533   15.0620  104.2581   16.0480  104.2727   16.0557   -0.0900   -0.0004
  2.030  104.8811   15.3512  104.1233   16.0134  104.1493   16.0064  104.8041   15.3961  105.1095   16.4001  105.1244   16.4077   -0.0976   -0.0004
  2.040  105.7493   15.6933  104.9757   16.3637  105.0018   16.3567  105.6732   15.7410  105.9790   16.7636  105.9944   16.7710   -0.1059   -0.0005
  2.050  106.6363   16.0467  105.8464   16.7254  105.8725   16.7184  106.5611   16.0973  106.8674   17.1390  106.8833   17.1462   -0.1148   -0.0005
  2.060  107.5428   16.4117  106.7359   17.0988  106.7621   17.0919  107.4686   16.4654  107.7751   17.5268  107.7915   17.5339   -0.1244   -0.0006
  2.070  108.4693   16.7890  107.6449   17.4846  107.6712   17.4777  108.3960   16.8459  108.7028   17.9276  108.7196   17.9344   -0.1348   -0.0006
  2.080  109.4163   17.1791  108.5739   17.8834  108.6002   17.8765  109.3441   17.2394  109.6509   18.3419  109.6683   18.3486   -0.1459   -0.0007
  2.090  110.3846   17.5825  109.5235   18.2956  109.5499   18.2887  110.3135   17.6464  110.6202   18.7704  110.6381   18.7769   -0.1579   -0.0007
  2.100  111.3748   17.9999  110.4944   18.7219  110.5208   18.7150  111.3049   18.0675  111.6114   19.2137  111.6298   19.2200   -0.1708   -0.0008
  2.110  112.3876   18.4320  111.4872   19.1630  111.5137   19.1561  112.3189   18.5035  112.6250   19.6725  112.6441   19.6786   -0.1847   -0.0008
  2.120  113.4237   18.8794  112.5026   19.6195  112.5291   19.6127  113.3563   18.9551  113.6618   20.1476  113.6815   20.1535   -0.1997   -0.0009
  2.130  114.4838   19.3429  113.5413   20.0922  113.5679   20.0855  114.4178   19.4229  114.7226   20.6398  114.7429   20.6454   -0.2158   -0.0010
  2.140  115.5688   19.8233  114.6041   20.5819  114.6307   20.5752  115.5042   19.9078  115.8080   21.1497  115.8290   21.1552   -0.2331   -0.0011
  2.150  116.6794   20.3213  115.6917   21.0894  115.7184   21.0827  116.6163   20.4106  116.9189   21.6785  116.9407   21.6837   -0.2518   -0.0012
  2.160  117.8164   20.8379  116.8049   21.6155  116.8316   21.6088  117.7549   20.9322  118.0562   22.2268  118.0786   22.2318   -0.2719   -0.0013
  2.170  118.9808   21.3740  117.9447   22.1612  117.9714   22.1545  118.9209   21.4735  119.2205   22.7959  119.2438   22.8006   -0.2936   -0.0014
  2.180  120.1735   21.9306  119.1117   22.7275  119.1384   22.7208  120.1153   22.0357  120.4129   23.3866  120.4370   23.3911   -0.3170   -0.0015
  2.190  121.3954   22.5087  120.3070   23.3153  120.3337   23.3087  121.3390   22.6197  121.6343   24.0001  121.6593   24.0043   -0.3422   -0.0016
  2.200  122.6474   23.1094  121.5314   23.9259  121.5582   23.9194  122.5929   23.2266  122.8856   24.6376  122.9115   24.6415   -0.3696   -0.0018
  2.210  123.9307   23.7340  122.7860   24.5604  122.8128   24.5539  123.8781   23.8577  124.1679   25.3004  124.1947   25.3040   -0.3992   -0.0019
  2.220  125.2463   24.3837  124.0718   25.2201  124.0986   25.2136  125.1957   24.5144  125.4821   25.9897  125.5099   25.9931   -0.4314   -0.0021
  2.230  126.5952   25.0599  125.3898   25.9062  125.4165   25.8998  126.5468   25.1978  126.8293   26.7071  126.8582   26.7102   -0.4664   -0.0022
  2.240  127.9788   25.7640  126.7411   26.6203  126.7678   26.6139  127.9325   25.9096  128.2108   27.4540  128.2408   27.4568   -0.5046   -0.0024
  2.250  129.3980   26.4976  128.1269   27.3638  128.1535   27.3575  129.3540   26.6514  129.6275   28.2321  129.6587   28.2346   -0.5465   -0.0026
  2.260  130.8543   27.2623  129.5483   28.1385  129.5749   28.1321  130.8127   27.4247  131.0808   29.0432  131.1133   29.0453   -0.5926   -0.0028
  2.270  132.3489   28.0599  131.0066   28.9459  131.0331   28.9396  132.3098   28.2314  132.5719   29.8890  132.6057   29.8908   -0.6435   -0.0031
  2.280  133.8832   28.8923  132.5030   29.7881  132.5295   29.7818  133.8466   29.0735  134.1021   30.7717  134.1373   30.7731   -0.6999   -0.0033
  2.290  135.4587   29.7615  134.0390   30.6670  134.0654   30.6607  135.4246   29.9529  135.6728   31.6932  135.7094   31.6944   -0.7628   -0.0036
  2.300  137.0766   30.6697  135.6159   31.5847  135.6422   31.5785  137.0453   30.8719  137.2853   32.6560  137.3235   32.6568   -0.8331   -0.0039
  2.310  138.7387   31.6193  137.2351   32.5435  137.2613   32.5373  138.7102   31.8330  138.9412   33.6625  138.9810   33.6630   -0.9122   -0.0043
  2.320  140.4465   32.6126  138.8981   33.5459  138.9241   33.5398  140.4209   32.8386  140.6419   34.7154  140.6834   34.7155   -1.0015   -0.0046
  2.330  142.2017   33.6525  140.6064   34.5946  140.6323   34.5885  142.1790   33.8915  142.3889   35.8174  142.4323   35.8171   -1.1029   -0.0050
  2.340  144.0059   34.7419  142.3617   35.6924  142.3875   35.6863  143.9862   34.9946  144.1840   36.9717  144.2293   36.9710   -1.2186   -0.0055
  2.350  145.8609   35.8838  144.1657   36.8424  144.1912   36.8363  145.8443   36.1513  146.0287   38.1814  146.0761   38.1804   -1.3509   -0.0060
  2.360  147.7686   37.0817  146.0200   38.0478  146.0453   38.0417  147.7551   37.3648  147.9248   39.4503  147.9744   39.4490   -1.5030   -0.0065
  2.370  149.7308   38.3392  147.9263   39.3123  147.9514   39.3062  149.7205   38.6389  149.8740   40.7821  149.9259   40.7804   -1.6783   -0.0071
  2.380  151.7496   39.6602  149.8866   40.6396  149.9114   40.6335  151.7425   39.9776  151.8781   42.1809  151.9324   42.1789   -1.8809   -0.0078
  2.390  153.8269   41.0489  151.9026   42.0339  151.9272   42.0278  153.8230   41.3854  153.9389   43.6512  153.9959   43.6489   -2.1155   -0.0086
  2.400  155.9649   42.5101  153.9763   43.4997  154.0005   43.4936  155.9640   42.8668  156.0584   45.1978  156.1181   45.1952   -2.3876   -0.0095
  2.410  158.1655   44.0487  156.1097   45.0419  156.1335   45.0357  158.1678   44.4269  158.2383   46.8260  158.3010   46.8232   -2.7036   -0.0105
  2.420  160.4311   45.6700  158.3046   46.6657  158.3281   46.6594  160.4363   46.0713  160.4807   48.5415  160.5466   48.5384   -3.0706   -0.0116
  2.430  162.7637   47.3800  160.5632   48.3768  160.5862   48.3704  162.7719   47.8060  162.7874   50.3503  162.8567   50.3470   -3.4968   -0.0129
  2.440  165.1656   49.1850  162.8874   50.1814  162.9099   50.1749  165.1765   49.6375  165.1603   52.2591  165.2332   52.2557   -3.9916   -0.0144
  2.450  167.6391   51.0920  165.2792   52.0862  165.3012   52.0796  167.6525   51.5728  167.6014   54.2753  167.6781   54.2717   -4.5655   -0.0160
  2.460  170.1864   53.1086  167.7407   54.0986  167.7621   54.0918  170.2019   53.6197  170.1123   56.4066  170.1931   56.4030   -5.2300   -0.0180
  2.470  172.8096   55.2429  170.2738   56.2264  170.2946   56.2194  172.8270   55.7866  172.6950   58.6617  172.7802   58.6582   -5.9982   -0.0202
  2.480  175.5109   57.5040  172.8804   58.4784  172.9005   58.4711  175.5296   58.0826  175.3509   61.0499  175.4408   61.0465   -6.8842   -0.0227
  2.490  178.2924   59.9016  175.5622   60.8640  175.5816   60.8563  178.3118   60.5178  178.0815   63.5813  178.1764   63.5782   -7.9037   -0.0256
  2.500  181.1559   62.4465  178.3210   63.3934  178.3395   63.3854  181.1754   63.1031  180.8881   66.2672  180.9884   66.2645   -9.0735   -0.0289
  2.510  184.1032   65.1503  181.1581   66.0780  181.1758   66.0696  184.1218   65.8504  183.7717   69.1195  183.8777   69.1175  -10.4117   -0.0328
  2.520  187.1357   68.0260  184.0747   68.9300  184.0915   68.9211  187.1524   68.7729  186.7328   72.1517  186.8450   72.1504  -11.9376   -0.0372
  2.530  190.2546   71.0875  187.0717   71.9630  187.0874   71.9534  190.2681   71.8848  189.7717   75.3781  189.8905   75.3778  -13.6715   -0.0422
  2.540  193.4605   74.3502  190.1495   75.1915  190.1641   75.1812  193.4694   75.2018  192.8878   78.8146  193.0138   78.8156  -15.6348   -0.0479
  2.550  196.7537   77.8311  193.3080   78.6317  193.3214   78.6206  196.7560   78.7412  196.0803   82.4784  196.2138   82.4810  -17.8491   -0.0545
  2.560  200.1336   81.5485  196.5463   82.3013  196.5585   82.2892  200.1272   82.5218  199.3470   86.3886  199.4887   86.3932  -20.3368   -0.0620
  2.570  203.5988   85.5229  199.8629   86.2196  199.8737   86.2064  203.5810   86.5643  202.6850   90.5659  202.8355   90.5728  -23.1200   -0.0705
  2.580  207.1469   89.7764  203.2550   90.4076  203.2643   90.3931  207.1145   90.8914  206.0899   95.0327  206.2498   95.0426  -26.2208   -0.0801
  2.590  210.7740   94.3336  206.7187   94.8887  206.7265   94.8727  210.7234   95.5278  209.5558   99.8140  209.7258   99.8274  -29.6602   -0.0910
  2.600  214.4746   99.2211  210.2484   99.6881  210.2546   99.6703  214.4014  100.5010  213.0749  104.9365  213.2557  104.9542  -33.4582   -0.1033
  2.610  218.2414  104.4684  213.8367  104.8337  213.8411  104.8138  218.1403  105.8406  216.6370  110.4298  216.8293  110.4526  -37.6330   -0.1171
  2.620  222.0642  110.1076  217.4736  110.3556  217.4763  110.3334  221.9291  111.5792  220.2289  116.3258  220.4336  116.3546  -42.2005   -0.1326
  2.630  225.9302  116.1736  221.1466  116.2870  221.1474  116.2620  225.7537  117.7523  223.8342  122.6591  224.0521  122.6950  -47.1741   -0.1500
  2.640  229.8226  122.7048  224.8394  122.6637  224.8383  122.6355  229.5960  124.3985  227.4322  129.4670  227.6641  129.5115  -52.5637   -0.1693
  2.650  233.7203  129.7424  228.5315  129.5246  228.5287  129.4928  233.4333  131.5597  230.9973  136.7900  231.2440  136.8444  -58.3760   -0.1907
  2.660  237.5965  137.3313  232.1976  136.9118  232.1929  136.8758  237.2372  139.2808  234.4976  144.6708  234.7601  144.7370  -64.6137   -0.2145
  2.670  241.4180  145.5195  235.8059  144.8702  235.7996  144.8294  240.9723  147.6100  237.8945  153.1550  238.1735  153.2351  -71.2756   -0.2407
  2.680  245.1439  154.3583  239.3176  153.4479  239.3097  153.4015  244.5950  156.5986  241.1407  162.2902  241.4369  162.3867  -78.3566   -0.2695
  2.690  248.7234  163.9016  242.6848  162.6952  242.6756  162.6426  248.0520  166.3002  244.1790  172.1258  244.4929  172.2413  -85.8486   -0.3010
  2.700  252.0948  174.2056  245.8493  172.6646  245.8394  172.6049  251.2782  176.7702  246.9402  182.7114  247.2723  182.8493  -93.7407   -0.3355
  2.710  255.1829  185.3275  248.7409  183.4098  248.7307  183.3420  254.1950  188.0646  249.3420  194.0961  249.6923  194.2600 -102.0207   -0.3730
  2.720  257.8972  197.3240  251.2746  194.9837  251.2649  194.9068  256.7076  200.2383  251.2860  206.3262  251.6543  206.5202 -110.6773   -0.4136
  2.730  260.1290  210.2492  253.3490  207.4373  253.3408  207.3503  258.7031  213.3425  252.6564  219.4424  253.0418  219.6711 -119.7021   -0.4576
  2.740  261.7492  224.1513  254.8437  220.8161  254.8384  220.7181  260.0477  227.4218  253.3178  233.4763  253.7188  233.7450 -129.0930   -0.5051
  2.750  262.6055  239.0686  255.6173  235.1570  255.6165  235.0469  260.5845  242.5092  253.1134  248.4462  253.5277  248.7604 -138.8583   -0.5561
  2.760  262.5210  255.0239  255.5047  250.4830  255.5106  250.3599  260.1319  258.6208  251.8646  264.3505  252.2885  264.7163 -149.0210   -0.6109
  2.770  261.2921  272.0175  254.3166  266.7967  254.3317  266.6600  258.4824  275.7483  249.3705  281.1612  249.7992  281.5850 -159.6247   -0.6695
  2.780  258.6892  290.0186  251.8390  284.0731  251.8663  283.9225  255.4035  293.8502  245.4103  298.8154  245.8373  299.3035 -170.7385   -0.7323
  2.790  254.4589  308.9546  247.8346  302.2494  247.8777  302.0853  250.6405  312.8416  239.7477  317.2058  240.1644  317.7641 -182.4628   -0.7993
  2.800  248.3289  328.7003  242.0476  321.2150  242.1104  321.0384  243.9228  332.5825  232.1379  336.1711  232.5339  336.8048 -194.9339   -0.8709
  2.810  240.0179  349.0649  234.2118  340.7998  234.2986  340.6128  234.9740  352.8662  222.3396  355.4867  222.7022  356.1995 -208.3264   -0.9475
  2.820  229.2503  369.7809  224.0630  360.7630  224.1781  360.5689  223.5280  373.4089  210.1311  374.8571  210.4454  375.6505 -222.8534   -1.0294
  2.830  215.7770  390.4949  211.3577  380.7841  211.5050  380.5877  209.3498  393.8417  195.3303  393.9129  195.5797  394.7856 -238.7617   -1.1171
  2.840  199.4016  410.7648  195.8967  400.4586  196.0795  400.2661  192.2631  413.7093  177.8195  412.2133  177.9863  413.1601 -256.3216   -1.2113
  2.850  180.0129  430.0643  177.5541  419.3007  177.7743  419.1198  172.1805  432.4773  157.5715  429.2572  157.6377  430.2684 -275.8101   -1.3127
  2.860  157.6176  447.8010  156.3088  436.7566  156.5665  436.5962  149.1362  449.5513  134.6745  444.5048  134.6234  445.5659 -297.4868   -1.4220
  2.870  132.3713  463.3475  132.2742  452.2311  132.5670  452.1005  123.3137  464.3097  109.3519  457.4093  109.1692  458.5011 -321.5622   -1.5402
  2.880  104.5991  476.0873  105.7209  465.1272  106.0436  465.0359   95.0637  476.1497   81.9713  467.4585   81.6470  468.5576 -348.1611   -1.6681
  2.890   74.8001  485.4726   77.0848  474.8980   77.4294  474.8541   64.9053  484.5431   53.0385  474.2212   52.5682  475.3012 -377.2825   -1.8068
  2.900   43.6279  491.0847   46.9558  481.1032   47.3119  481.1129   33.5046  489.0939   23.1748  477.3931   22.5605  478.4265 -408.7608   -1.9570
  2.910   11.8468  492.6891   16.0430  483.4631   16.3983  483.5299    1.6305  489.5891   -6.9248  476.8346   -7.6743  477.7946 -442.2333   -2.1195
  2.920  -19.7354  490.2714  -14.8819  481.8986  -14.5407  482.0224  -29.9101  486.0306  -36.5458  472.5920  -37.4158  473.4546 -477.1195   -2.2949
  2.930  -50.3477  484.0455  -45.0569  476.5467  -44.7430  476.7241  -60.3479  478.6401  -65.0175  464.8986  -65.9883  465.6441 -512.6181   -2.4833
  2.940  -79.3378  474.4275  -73.8062  467.7480  -73.5317  467.9719  -89.0262  467.8341  -91.7731  454.1508  -92.8219  454.7650 -547.7257   -2.6845
  2.950 -106.2403  461.9763 -100.6086  456.0008 -100.3837  456.2614 -115.4613  454.1687 -116.3999  440.8625 -117.5023  441.3365 -581.2799   -2.8982
  2.960 -130.8157  447.3056 -125.1448  441.8898 -124.9772  442.1745 -139.3784  438.2624 -138.6695  425.6001 -139.8013  425.9301 -612.0257   -3.1231
  2.970 -153.0485  430.9792 -147.3106  425.9938 -147.2044  426.2878 -160.7099  420.7072 -158.5400  408.9065 -159.6777  409.0927 -638.7015   -3.3578
  2.980 -173.0869  413.4101 -167.1818  408.7902 -167.1370  409.0776 -179.5505  401.9837 -176.1212  391.2248 -177.2424  391.2706 -660.1370   -3.6004
  2.990 -191.1241  394.8011 -184.9274  390.5851 -184.9384  390.8499 -196.0678  382.4092 -191.5979  372.8443 -192.6807  372.7564 -675.3547   -3.8486
  3.000 -207.2485  375.1753 -200.6828  371.5086 -200.7385  371.7375 -210.3896  362.1503 -205.1271  353.9015 -206.1498  353.6904 -683.6613   -4.0998
  3.010 -221.3446  354.5160 -214.4452  351.6032 -214.5301  351.7885 -222.5247  341.3149 -216.7515  334.4538 -217.6943  334.1356 -684.7213   -4.3514
  3.020 -233.1301  332.9504 -226.0635  330.9702 -226.1614  331.1118 -232.3778  320.0770 -226.3939  314.5991 -227.2413  314.1953 -678.6017   -4.6008
  3.030 -242.3259  310.8443 -235.3458  309.8736 -235.4437  309.9779 -239.8563  298.7451 -233.9423  294.5591 -234.6864  294.0946 -665.7831   -4.8455
  3.040 -248.8337  288.7352 -242.2023  288.7254 -242.2935  288.8019 -244.9855  277.7217 -239.3654  274.6670 -240.0061  274.1663 -647.1362   -5.0833
  3.050 -252.7984  267.1721 -246.7222  267.9774 -246.8053  268.0350 -247.9485  257.3995 -242.7708  255.2811 -243.3145  254.7651 -623.8664   -5.3126
  3.060 -254.5487  246.5814 -249.1517  248.0097 -249.2289  248.0549 -249.0442  238.0750 -244.3868  236.6975 -244.8436  236.1820 -597.4342   -5.5321
  3.070 -254.4914  227.2188 -249.8207  229.0753 -249.8957  229.1113 -248.6164  219.9186 -244.5032  219.1076 -244.8846  218.6033 -569.4604   -5.7414
  3.080 -253.0266  209.1877 -249.0721  211.3001 -249.1486  211.3277 -246.9948  202.9895 -243.4154  202.5999 -243.7326  202.1137 -541.6272   -5.9404
  3.090 -250.5013  192.4825 -247.2172  194.7114 -247.2982  194.7293 -244.4654  187.2674 -241.3898  187.1831 -241.6529  186.7190 -515.5843   -6.1299
  3.100 -247.1955  177.0317 -244.5175  179.2705 -244.6050  179.2764 -241.2602  172.6834 -238.6495  172.8135 -238.8673  172.3735 -492.8688   -6.3110
  3.110 -243.3245  162.7291 -241.1807  164.8998 -241.2758  164.8905 -237.5603  159.1425 -235.3720  159.4161 -235.5523  159.0009 -474.8412   -6.4856
  3.120 -239.0476  149.4534 -237.3657  151.5016 -237.4683  151.4735 -233.5018  146.5378 -231.6937  146.8998 -231.8432  146.5089 -462.6399   -6.6556
  3.130 -234.4775  137.0804 -233.1882  138.9703 -233.2974  138.9192 -229.1831  134.7594 -227.7146  135.1668 -227.8390  134.7991 -457.1507   -6.8236
  3.140 -229.6885  125.4893 -228.7275  127.1996 -228.8414  127.1208 -224.6710  123.6993 -223.5034  124.1183 -223.6076  123.7719 -458.9902   -6.9922
  3.150 -224.7227  114.5663 -224.0313  116.0873 -224.1463  115.9759 -220.0044  113.2540 -219.1012  113.6581 -219.1891  113.3307 -468.4962   -7.1644
  3.160 -219.5936  104.2073 -219.1188  105.5389 -219.2300  105.3899 -215.1977  103.3266 -214.5241  103.6952 -214.5987  103.3838 -485.7285   -7.3429
  3.170 -214.2888   94.3197 -213.9838   95.4704 -214.0839   95.2787 -210.2414   93.8283 -209.7639   94.1456 -209.8269   93.8470 -510.4772   -7.5305
  3.180 -208.7703   84.8251 -208.5953   85.8114 -208.6745   85.5726 -205.1019   84.6806 -204.7878   84.9356 -204.8397   84.6464 -542.2872   -7.7298
  3.190 -202.9747   75.6639 -202.8983   76.5097 -202.9434   76.2212 -199.7201   75.8192 -199.5369   76.0053 -199.5765   75.7228 -580.5005   -7.9431
  3.200 -196.8114   66.8021 -196.8132   67.5378 -196.8078   67.2000 -194.0081   67.2010 -193.9229   67.3171 -193.9479   67.0392 -624.3228   -8.1726
  3.210 -190.1629   58.2437 -190.2374   58.9040 -190.1617   58.5225 -187.8476   58.8157 -187.8270   58.8676 -187.8338   58.5944 -672.9071   -8.4199
  3.220 -182.8892   50.0490 -183.0500   50.6676 -182.8820   50.2561 -181.0904   50.7059 -181.1014   50.7094 -181.0865   50.4431 -725.4397   -8.6864
  3.230 -174.8447   42.3610 -175.1273   42.9606 -174.8462   42.5438 -173.5722   42.9953 -173.5861   42.9801 -173.5470   42.7252 -781.2001   -8.9735
  3.240 -165.9172   35.4295 -166.3758   36.0081 -165.9677   35.6236 -165.1484   35.9208 -165.1486   35.9332 -165.0859   35.6962 -839.5606   -9.2821
  3.250 -156.0977   29.6184 -156.7906   30.1336 -156.2579   29.8306 -155.7656   29.8492 -155.7623   29.9496 -155.6801   29.7365 -899.8926   -9.6128
  3.260 -145.5697   25.3582 -146.5318   25.7230 -145.9017   25.5532 -145.5636   25.2415 -145.6083   25.4876 -145.5141   25.3014 -961.3720   -9.9661
  3.270 -134.7717   23.0234 -135.9821   23.1246 -135.3099   23.1257 -134.9588   22.5266 -135.1455   22.9421 -135.0476   22.7809 *********  -10.3419
  3.280 -124.3569   22.7592 -125.7275   22.4994 -125.0855   22.6776 -124.6199   21.9068 -125.0571   22.4500 -124.9606   22.3068 *********  -10.7395
  3.290 -115.0239   24.3616 -116.4217   23.7016 -115.8764   24.0237 -115.2875   23.2087 -116.0485   23.7712 -115.9524   23.6370 *********  -11.1570
  3.300 -107.2949   27.3061 -108.5888   26.2777 -108.1771   26.6836 -107.5230   25.9051 -108.6086   26.3500 -108.5041   26.2184 *********  -11.5910
  3.310 -101.3750   30.9127 -102.4734   29.5976 -102.1946   30.0244 -101.5478   29.2999 -102.8892   29.5129 -102.7624   29.3859 *********  -12.0369
  3.320  -97.1458   34.5398  -98.0081   33.0358  -97.8343   33.4400  -97.2452   32.7454  -98.7362   32.6635  -98.5750   32.5563 *********  -12.4882
  3.330  -94.2531   37.7283  -94.8808   36.1229  -94.7769   36.4881  -94.2690   35.7869  -95.7994   35.3999  -95.6055   35.3374 *********  -12.9374
  3.340  -92.2460   40.2821  -92.6667   38.6398  -92.6077   38.9687  -92.1893   38.2232  -93.6665   37.5603  -93.4611   37.5642 *********  -13.3769
  3.350  -90.7526   42.2526  -91.0026   40.6116  -90.9782   40.9108  -90.6462   40.0784  -92.0041   39.1919  -91.8200   39.2653 *********  -13.8027
  3.360  -89.5923   43.7933  -89.7036   42.1719  -89.7105   42.4422  -89.4421   41.4769  -90.6421   40.4272  -90.5063   40.5525 *********  -14.2246
  3.370  -88.7297   45.0017  -88.7258   43.4089  -88.7580   43.6452  -88.5074   42.5121  -89.5330   41.3577  -89.4564   41.5082 *********  -14.6753
  3.380  -88.1542   45.8833  -88.0548   44.3244  -88.0983   44.5245  -87.8080   43.2106  -88.6584   42.0031  -88.6374   42.1552 *********  -15.1877
  3.390  -87.8165   46.4040  -87.6361   44.8716  -87.6777   45.0505  -87.2897   43.5647  -87.9754   42.3470  -87.9990   42.4848 *********  -15.7355
  3.400  -87.6290   46.5438  -87.3509   45.0381  -87.4084   45.2073  -86.8706   43.5801  -87.4073   42.3853  -87.4621   42.5009 *********  -16.2269
  3.410  -87.4985   46.3155  -87.1256   44.8725  -87.2012   45.0122  -86.4824   43.2895  -86.8892   42.1457  -86.9635   42.2372 -999.3226  -16.5941
  3.420  -87.3408   45.7558  -86.9003   44.3940  -86.9786   44.5005  -86.0657   42.7275  -86.3663   41.6550  -86.4510   41.7238 -693.9667  -16.8491
  3.430  -87.0895   44.9219  -86.6062   43.6459  -86.6780   43.7248  -85.5700   41.9434  -85.7888   40.9540  -85.8775   41.0032 -517.3975  -17.0393
  3.440  -86.7027   43.8798  -86.1975   42.6885  -86.2588   42.7462  -84.9642   40.9930  -85.1240   40.0921  -85.2125   40.1253 -429.8844  -17.1972
  3.450  -86.1607   42.6947  -85.6513   41.5831  -85.7008   41.6250  -84.2350   39.9301  -84.3556   39.1178  -84.4414   39.1384 -378.3447  -17.3363
  3.460  -85.4613   41.4242  -84.9621   40.3848  -84.9997   40.4152  -83.3822   38.8014  -83.4800   38.0744  -83.5619   38.0854 -340.1161  -17.4613
  3.470  -84.6141   40.1155  -84.1360   39.1395  -84.1626   39.1618  -82.4145   37.6450  -82.5026   36.9979  -82.5800   37.0020 -308.9967  -17.5748
  3.480  -83.6356   38.8051  -83.1867   37.8833  -83.2032   37.8997  -81.3458   36.4901  -81.4340   35.9168  -81.5068   35.9157 -282.9258  -17.6788
  3.490  -82.5451   37.5195  -82.1309   36.6428  -82.1385   36.6552  -80.1917   35.3578  -80.2872   34.8519  -80.3557   34.8473 -260.6597  -17.7746
  3.500  -81.3623   36.2771  -80.9864   35.4371  -80.9861   35.4467  -78.9683   34.2629  -79.0760   33.8182  -79.1406   33.8113 -241.3006  -17.8633
  3.510  -80.1061   35.0897  -79.7704   34.2788  -79.7633   34.2864  -77.6903   33.2147  -77.8138   32.8259  -77.8748   32.8176 -224.2249  -17.9457
  3.520  -78.7930   33.9644  -78.4987   33.1758  -78.4854   33.1819  -76.3711   32.2189  -76.5126   31.8813  -76.5704   31.8722 -209.0244  -18.0225
  3.530  -77.4375   32.9046  -77.1849   32.1325  -77.1663   32.1376  -75.0223   31.2783  -75.1831   30.9880  -75.2381   30.9785 -195.4444  -18.0943
  3.540  -76.0521   31.9114  -75.8410   31.1508  -75.8176   31.1551  -73.6534   30.3938  -73.8345   30.1476  -73.8870   30.1382 -183.3296  -18.1617
  3.550  -74.6470   30.9843  -74.4769   30.2307  -74.4492   30.2344  -72.2728   29.5650  -72.4746   29.3603  -72.5248   29.3512 -172.5834  -18.2251
  3.560  -73.2306   30.1216  -73.1010   29.3713  -73.0693   29.3745  -70.8870   28.7905  -71.1096   28.6254  -71.1580   28.6168 -163.1390  -18.2851
  3.570  -71.8098   29.3212  -71.7202   28.5706  -71.6849   28.5735  -69.5014   28.0686  -69.7451   27.9417  -69.7917   27.9338 -154.9423  -18.3420
  3.580  -70.3902   28.5803  -70.3401   27.8266  -70.3013   27.8291  -68.1205   27.3971  -68.3853   27.3074  -68.4304   27.3003 -147.9418  -18.3964
  3.590  -68.9763   27.8963  -68.9651   27.1367  -68.9231   27.1389  -66.7477   26.7737  -67.0338   26.7206  -67.0775   26.7145 -142.0834  -18.4486
  3.600  -67.5717   27.2663  -67.5991   26.4982  -67.5539   26.5002  -65.3858   26.1962  -65.6933   26.1795  -65.7358   26.1743 -137.3090  -18.4990
  3.610  -66.1792   26.6875  -66.2448   25.9086  -66.1967   25.9104  -64.0369   25.6621  -64.3662   25.6819  -64.4076   25.6777 -133.5568  -18.5481
  3.620  -64.8009   26.1573  -64.9047   25.3653  -64.8537   25.3670  -62.7027   25.1694  -63.0542   25.2260  -63.0946   25.2228 -130.7624  -18.5962
  3.630  -63.4387   25.6732  -63.5805   24.8658  -63.5267   24.8674  -61.3845   24.7157  -61.7588   24.8097  -61.7983   24.8076 -128.8604  -18.6435
  3.640  -62.0938   25.2329  -62.2737   24.4078  -62.2170   24.4093  -60.0830   24.2992  -60.4809   24.4313  -60.5196   24.4304 -127.7864  -18.6905
  3.650  -60.7670   24.8342  -60.9851   23.9890  -60.9257   23.9905  -58.7990   23.9180  -59.2213   24.0891  -59.2593   24.0893 -127.4785  -18.7373
  3.660  -59.4592   24.4751  -59.7157   23.6074  -59.6534   23.6089  -57.5328   23.5702  -57.9807   23.7815  -58.0180   23.7828 -127.8790  -18.7843
  3.670  -58.1708   24.1537  -58.4657   23.2610  -58.4007   23.2625  -56.2845   23.2543  -56.7592   23.5070  -56.7960   23.5095 -128.9352  -18.8317
  3.680  -56.9019   23.8684  -57.2356   22.9479  -57.1678   22.9496  -55.0541   22.9688  -55.5573   23.2643  -55.5934   23.2679 -130.6007  -18.8797
  3.690  -55.6528   23.6178  -56.0254   22.6666  -55.9547   22.6685  -53.8415   22.7123  -54.3748   23.0521  -54.4105   23.0569 -132.8359  -18.9285
  3.700  -54.4233   23.4004  -54.8351   22.4155  -54.7615   22.4177  -52.6464   22.4837  -53.2119   22.8694  -53.2470   22.8753 -135.6080  -18.9784
  3.710  -53.2134   23.2152  -53.6644   22.1932  -53.5880   22.1957  -51.4684   22.2818  -52.0683   22.7150  -52.1030   22.7221 -138.8912  -19.0294
  3.720  -52.0229   23.0611  -52.5132   21.9984  -52.4338   22.0014  -50.3070   22.1056  -50.9439   22.5883  -50.9781   22.5966 -142.6666  -19.0818
  3.730  -50.8515   22.9373  -51.3809   21.8301  -51.2985   21.8337  -49.1617   21.9544  -49.8385   22.4884  -49.8723   22.4979 -146.9215  -19.1358
  3.740  -49.6990   22.8430  -50.2673   21.6873  -50.1819   21.6915  -48.0318   21.8274  -48.7517   22.4148  -48.7851   22.4254 -151.6493  -19.1916
  3.750  -48.5651   22.7776  -49.1718   21.5691  -49.0832   21.5740  -46.9168   21.7241  -47.6834   22.3668  -47.7164   22.3786 -156.8486  -19.2492
  3.760  -47.4496   22.7408  -48.0938   21.4747  -48.0020   21.4805  -45.8160   21.6440  -46.6332   22.3442  -46.6658   22.3572 -162.5229  -19.3089
  3.770  -46.3521   22.7322  -47.0327   21.4037  -46.9377   21.4105  -44.7285   21.5868  -45.6008   22.3466  -45.6330   22.3609 -168.6793  -19.3709
  3.780  -45.2725   22.7517  -45.9880   21.3554  -45.8897   21.3634  -43.6537   21.5524  -44.5860   22.3740  -44.6178   22.3894 -175.3286  -19.4353
  3.790  -44.2105   22.7991  -44.9590   21.3297  -44.8573   21.3389  -42.5909   21.5408  -43.5885   22.4262  -43.6200   22.4429 -182.4837  -19.5024
  3.800  -43.1661   22.8746  -43.9450   21.3263  -43.8399   21.3369  -41.5391   21.5519  -42.6083   22.5033  -42.6393   22.5212 -190.1598  -19.5723
  3.810  -42.1392   22.9782  -42.9454   21.3451  -42.8367   21.3574  -40.4978   21.5861  -41.6451   22.6055  -41.6757   22.6246 -198.3730  -19.6452
  3.820  -41.1299   23.1102  -41.9596   21.3863  -41.8472   21.4003  -39.4660   21.6438  -40.6990   22.7329  -40.7291   22.7533 -207.1400  -19.7213
  3.830  -40.1383   23.2709  -40.9868   21.4500  -40.8708   21.4660  -38.4432   21.7255  -39.7699   22.8860  -39.7996   22.9076 -216.4773  -19.8009
  3.840  -39.1646   23.4607  -40.0266   21.5367  -39.9068   21.5549  -37.4286   21.8319  -38.8581   23.0650  -38.8872   23.0879 -226.4006  -19.8841
  3.850  -38.2093   23.6799  -39.0784   21.6469  -38.9546   21.6674  -36.4215   21.9639  -37.9636   23.2705  -37.9922   23.2947 -236.9239  -19.9711
  3.860  -37.2728   23.9289  -38.1416   21.7813  -38.0138   21.8045  -35.4213   22.1226  -37.0869   23.5030  -37.1149   23.5285 -248.0592  -20.0623
  3.870  -36.3556   24.2082  -37.2158   21.9407  -37.0839   21.9668  -34.4275   22.3092  -36.2284   23.7629  -36.2557   23.7897 -259.8157  -20.1578
  3.880  -35.4585   24.5181  -36.3006   22.1263  -36.1645   22.1556  -33.4396   22.5251  -35.3886   24.0509  -35.4150   24.0790 -272.1989  -20.2578
  3.890  -34.5820   24.8590  -35.3958   22.3392  -35.2554   22.3721  -32.4573   22.7720  -34.5680   24.3676  -34.5936   24.3971 -285.2102  -20.3626
  3.900  -33.7270   25.2312  -34.5012   22.5810  -34.3564   22.6178  -31.4803   23.0517  -33.7675   24.7135  -33.7919   24.7444 -298.8462  -20.4724
  3.910  -32.8942   25.6350  -33.6169   22.8532  -33.4676   22.8944  -30.5084   23.3664  -32.9877   25.0894  -33.0109   25.1217 -313.0981  -20.5875
  3.920  -32.0843   26.0707  -32.7430   23.1579  -32.5892   23.2039  -29.5418   23.7184  -32.2294   25.4959  -32.2511   25.5297 -327.9507  -20.7080
  3.930  -31.2979   26.5387  -31.8801   23.4971  -31.7216   23.5485  -28.5807   24.1102  -31.4935   25.9339  -31.5135   25.9694 -343.3823  -20.8342
  3.940  -30.5354   27.0396  -31.0287   23.8733  -30.8655   23.9305  -27.6257   24.5449  -30.7809   26.4042  -30.7989   26.4415 -359.3638  -20.9663
  3.950  -29.7972   27.5740  -30.1900   24.2891  -30.0221   24.3528  -26.6774   25.0257  -30.0926   26.9081  -30.1083   26.9474 -375.8585  -21.1044
  3.960  -29.0837   28.1430  -29.3655   24.7474  -29.1929   24.8183  -25.7371   25.5561  -29.4296   27.4469  -29.4425   27.4886 -392.8214  -21.2488
  3.970  -28.3952   28.7484  -28.5570   25.2513  -28.3798   25.3302  -24.8064   26.1399  -28.7931   28.0225  -28.8031   28.0670 -410.1989  -21.3995
  3.980  -27.7321   29.3923  -27.7672   25.8042  -27.5855   25.8920  -23.8873   26.7815  -28.1850   28.6371  -28.1915   28.6849 -427.9288  -21.5568
  3.990  -27.0953   30.0779  -26.9993   26.4095  -26.8133   26.5073  -22.9825   27.4853  -27.6073   29.2933  -27.6100   29.3452 -445.9399  -21.7207
  4.000  -26.4862   30.8088  -26.2573   27.0711  -26.0674   27.1798  -22.0955   28.2564  -27.0631   29.9943  -27.0616   30.0511 -464.1525  -21.8912
  4.010  -25.9074   31.5899  -25.5463   27.7925  -25.3530   27.9132  -21.2305   29.1001  -26.5563   30.7437  -26.5505   30.8065 -482.4780  -22.0685
  4.020  -25.3627   32.4263  -24.8723   28.5773  -24.6762   28.7113  -20.3930   30.0217  -26.0923   31.5453  -26.0821   31.6152 -500.8196  -22.2526
  4.030  -24.8576   33.3239  -24.2425   29.4287  -24.0446   29.5774  -19.5894   31.0273  -25.6781   32.4025  -25.6636   32.4810 -519.0731  -22.4433
  4.040  -24.3997   34.2885  -23.6658   30.3495  -23.4671   30.5142  -18.8279   32.1225  -25.3226   33.3187  -25.3042   33.4073 -537.1267  -22.6407
  4.050  -23.9992   35.3257  -23.1520   31.3416  -22.9542   31.5237  -18.1180   33.3131  -25.0366   34.2960  -25.0151   34.3963 -554.8631  -22.8446
  4.060  -23.6687   36.4397  -22.7128   32.4057  -22.5176   32.6066  -17.4715   34.6048  -24.8331   35.3350  -24.8096   35.4486 -572.1594  -23.0549
  4.070  -23.4234   37.6336  -22.3612   33.5410  -22.1709   33.7618  -16.9023   36.0023  -24.7271   36.4338  -24.7031   36.5624 -588.8892  -23.2713
  4.080  -23.2813   38.9074  -22.1116   34.7443  -21.9288   34.9862  -16.4267   37.5094  -24.7351   37.5876  -24.7127   37.7326 -604.9234  -23.4936
  4.090  -23.2627   40.2580  -21.9794   36.0102  -21.8073   36.2738  -16.0639   39.1282  -24.8748   38.7876  -24.8565   38.9503 -620.1322  -23.7215
  4.100  -23.3896   41.6780  -21.9806   37.3297  -21.8229   37.6153  -15.8359   40.8582  -25.1642   40.0205  -25.1529   40.2014 -634.3862  -23.9546
  4.110  -23.6850   43.1547  -22.1314   38.6905  -21.9920   38.9976  -15.7676   42.6957  -25.6203   41.2676  -25.6192   41.4670 -647.5585  -24.1926
  4.120  -24.1719   44.6692  -22.4471   40.0760  -22.3304   40.4036  -15.8866   44.6323  -26.2578   42.5050  -26.2705   42.7223 -659.5264  -24.4350
  4.130  -24.8714   46.1962  -22.9413   41.4657  -22.8516   41.8115  -16.2225   46.6540  -27.0872   43.7033  -27.1173   43.9369 -670.1732  -24.6813
  4.140  -25.8012   47.7035  -23.6245   42.8347  -23.5662   43.1955  -16.8063   48.7393  -28.1134   44.8283  -28.1641   45.0761 -679.3901  -24.9309
  4.150  -26.9733   49.1523  -24.5035   44.1545  -24.4805   44.5259  -17.6682   50.8583  -29.3333   45.8429  -29.4075   46.1016 -687.0777  -25.1834
  4.160  -28.3915   50.4987  -25.5794   45.3937  -25.5950   45.7702  -18.8360   52.9713  -30.7348   46.7084  -30.8347   46.9740 -693.1481  -25.4382
  4.170  -30.0502   51.6949  -26.8476   46.5186  -26.9038   46.8938  -20.3314   55.0288  -32.2960   47.3878  -32.4227   47.6560 -697.5262  -25.6945
  4.180  -31.9318   52.6925  -28.2959   47.4954  -28.3936   47.8622  -22.1672   56.9710  -33.9854   47.8486  -34.1388   48.1148 -700.1511  -25.9518
  4.190  -34.0070   53.4453  -29.9052   48.2912  -30.0432   48.6421  -24.3427   58.7308  -35.7630   48.0658  -35.9421   48.3254 -700.9777  -26.2094
  4.200  -36.2346   53.9131  -31.6485   48.8761  -31.8242   49.2038  -26.8407   60.2362  -37.5829   48.0244  -37.7855   48.2735 -699.9772  -26.4666
  4.210  -38.5633   54.0651  -33.4919   49.2255  -33.7009   49.5233  -29.6244   61.4158  -39.3967   47.7210  -39.6199   47.9564 -697.1384  -26.7228
  4.220  -40.9343   53.8828  -35.3957   49.3215  -35.6321   49.5839  -32.6373   62.2051  -41.1567   47.1642  -41.3970   47.3835 -692.4678  -26.9773
  4.230  -43.2855   53.3620  -37.3160   49.1551  -37.5727   49.3782  -35.8042   62.5535  -42.8197   46.3732  -43.0733   46.5752 -685.9902  -27.2294
  4.240  -45.5549   52.5133  -39.2072   48.7271  -39.4766   48.9089  -39.0364   62.4300  -44.3496   45.3761  -44.6128   45.5605 -677.7485  -27.4785
  4.250  -47.6855   51.3615  -41.0247   48.0489  -41.2990   48.1890  -42.2384   61.8281  -45.7192   44.2069  -45.9888   44.3741 -667.8029  -27.7239
  4.260  -49.6288   49.9434  -42.7280   47.1412  -43.0001   47.2413  -45.3160   60.7663  -46.9109   42.9025  -47.1839   43.0535 -656.2312  -27.9651
  4.270  -51.3473   48.3043  -44.2831   46.0332  -44.5467   46.0961  -48.1844   59.2866  -47.9163   41.4998  -48.1905   41.6363 -643.1268  -28.2014
  4.280  -52.8166   46.4950  -45.6645   44.7596  -45.9145   44.7894  -50.7750   57.4497  -48.7348   40.0338  -49.0085   40.1574 -628.5982  -28.4324
  4.290  -54.0247   44.5669  -46.8560   43.3582  -47.0886   43.3594  -53.0390   55.3277  -49.3726   38.5355  -49.6447   38.6482 -612.7673  -28.6576
  4.300  -54.9715   42.5696  -47.8505   41.8669  -48.0633   41.8443  -54.9490   52.9979  -49.8404   37.0318  -50.1101   37.1352 -595.7674  -28.8765
  4.310  -55.6667   40.5476  -48.6491   40.3213  -48.8407   40.2797  -56.4975   50.5353  -50.1520   35.5442  -50.4191   35.6400 -577.7420  -29.0888
  4.320  -56.1271   38.5387  -49.2597   38.7535  -49.4298   38.6972  -57.6933   48.0086  -50.3230   34.0899  -50.5875   34.1795 -558.8420  -29.2942
  4.330  -56.3746   36.5736  -49.6948   37.1904  -49.8438   37.1232  -58.5580   45.4764  -50.3695   32.6815  -50.6315   32.7661 -539.2240  -29.4924
  4.340  -56.4336   34.6757  -49.9702   35.6536  -50.0990   35.5788  -59.1212   42.9862  -50.3074   31.3279  -50.5673   31.4086 -519.0482  -29.6831
  4.350  -56.3293   32.8615  -50.1031   34.1599  -50.2131   34.0802  -59.4173   40.5741  -50.1517   30.0349  -50.4099   30.1126 -498.4756  -29.8663
  4.360  -56.0862   31.1420  -50.1112   32.7213  -50.2038   32.6388  -59.4819   38.2660  -49.9163   28.8060  -50.1732   28.8811 -477.6666  -30.0419
  4.370  -55.7271   29.5230  -50.0116   31.3458  -50.0884   31.2623  -59.3500   36.0788  -49.6137   27.6422  -49.8697   27.7155 -456.7781  -30.2097
  4.380  -55.2730   28.0069  -49.8204   30.0383  -49.8829   29.9549  -59.0544   34.0222  -49.2551   26.5436  -49.5107   26.6154 -435.9623  -30.3699
  4.390  -54.7422   26.5929  -49.5521   28.8010  -49.6017   28.7186  -58.6247   32.0999  -48.8502   25.5089  -49.1059   25.5795 -415.3640  -30.5226
  4.400  -54.1508   25.2785  -49.2196   27.6341  -49.2578   27.5534  -58.0870   30.3119  -48.4076   24.5360  -48.6638   24.6056 -395.1197  -30.6678
  4.410  -53.5125   24.0594  -48.8345   26.5367  -48.8624   26.4580  -57.4639   28.6545  -47.9346   23.6224  -48.1916   23.6913 -375.3558  -30.8057
  4.420  -52.8390   22.9308  -48.4066   25.5065  -48.4252   25.4301  -56.7748   27.1225  -47.4375   22.7653  -47.6956   22.8335 -356.1874  -30.9366
  4.430  -52.1397   21.8872  -47.9443   24.5409  -47.9547   24.4668  -56.0358   25.7091  -46.9215   21.9617  -47.1811   22.0294 -337.7174  -31.0607
  4.440  -51.4229   20.9229  -47.4548   23.6365  -47.4577   23.5647  -55.2603   24.4069  -46.3912   21.2085  -46.6526   21.2757 -320.0361  -31.1783
  4.450  -50.6950   20.0323  -46.9442   22.7901  -46.9404   22.7206  -54.4595   23.2082  -45.8504   20.5027  -46.1138   20.5696 -303.2202  -31.2898
  4.460  -49.9613   19.2099  -46.4176   21.9982  -46.4077   21.9308  -53.6424   22.1053  -45.3021   19.8414  -45.5678   19.9079 -287.3333  -31.3954
  4.470  -49.2261   18.4504  -45.8793   21.2573  -45.8637   21.1919  -52.8163   21.0908  -44.7492   19.2216  -45.0175   19.2878 -272.4254  -31.4955
  4.480  -48.4930   17.7488  -45.3327   20.5642  -45.3119   20.5005  -51.9870   20.1575  -44.1939   18.6408  -44.4648   18.7067 -258.5336  -31.5905
  4.490  -47.7646   17.1005  -44.7809   19.9157  -44.7552   19.8535  -51.1592   19.2987  -43.6378   18.0964  -43.9117   18.1620 -245.6827  -31.6808
  4.500  -47.0429   16.5013  -44.2263   19.3086  -44.1960   19.2479  -50.3365   18.5082  -43.0826   17.5860  -43.3597   17.6514 -233.8854  -31.7667
  4.510  -46.3298   15.9472  -43.6708   18.7403  -43.6361   18.6808  -49.5219   17.7802  -42.5295   17.1074  -42.8100   17.1725 -223.1437  -31.8487
  4.520  -45.6264   15.4345  -43.1161   18.2081  -43.0771   18.1496  -48.7174   17.1095  -41.9796   16.6584  -42.2636   16.7233 -213.4494  -31.9272
  4.530  -44.9336   14.9600  -42.5636   17.7095  -42.5204   17.6519  -47.9247   16.4912  -41.4335   16.2373  -41.7213   16.3019 -204.7857  -32.0024
  4.540  -44.2521   14.5206  -42.0142   17.2422  -41.9670   17.1854  -47.1451   15.9209  -40.8921   15.8422  -41.1838   15.9065 -197.1278  -32.0749
  4.550  -43.5823   14.1135  -41.4689   16.8042  -41.4178   16.7480  -46.3793   15.3947  -40.3557   15.4714  -40.6516   15.5355 -190.4443  -32.1449
  4.560  -42.9246   13.7364  -40.9283   16.3936  -40.8733   16.3377  -45.6278   14.9089  -39.8249   15.1235  -40.1252   15.1874 -184.6984  -32.2127
  4.570  -42.2790   13.3869  -40.3931   16.0084  -40.3341   15.9530  -44.8912   14.4602  -39.2999   14.7971  -39.6048   14.8607 -179.8490  -32.2788
  4.580  -41.6455   13.0629  -39.8636   15.6473  -39.8006   15.5920  -44.1694   14.0456  -38.7810   14.4909  -39.0907   14.5542 -175.8514  -32.3434
  4.590  -41.0242   12.7627  -39.3402   15.3085  -39.2732   15.2533  -43.4626   13.6626  -38.2684   14.2037  -38.5831   14.2668 -172.6591  -32.4069
  4.600  -40.4149   12.4844  -38.8230   14.9908  -38.7520   14.9357  -42.7705   13.3086  -37.7621   13.9344  -38.0821   13.9972 -170.2239  -32.4695
  4.610  -39.8174   12.2266  -38.3123   14.6930  -38.2371   14.6377  -42.0931   12.9814  -37.2622   13.6821  -37.5877   13.7446 -168.4975  -32.5314
  4.620  -39.2315   11.9879  -37.8082   14.4137  -37.7288   14.3583  -41.4301   12.6791  -36.7688   13.4458  -37.1000   13.5080 -167.4315  -32.5929
  4.630  -38.6570   11.7671  -37.3108   14.1520  -37.2271   14.0965  -40.7812   12.3999  -36.2818   13.2246  -36.6191   13.2865 -166.9788  -32.6543
  4.640  -38.0936   11.5629  -36.8200   13.9070  -36.7319   13.8512  -40.1460   12.1421  -35.8012   13.0179  -36.1449   13.0794 -167.0936  -32.7157
  4.650  -37.5411   11.3743  -36.3360   13.6777  -36.2432   13.6216  -39.5242   11.9044  -35.3271   12.8249  -35.6773   12.8860 -167.7319  -32.7773
  4.660  -36.9991   11.2004  -35.8586   13.4632  -35.7611   13.4068  -38.9155   11.6853  -34.8592   12.6450  -35.2163   12.7056 -168.8523  -32.8394
  4.670  -36.4673   11.0404  -35.3878   13.2630  -35.2855   13.2062  -38.3194   11.4837  -34.3976   12.4775  -34.7619   12.5376 -170.4158  -32.9020
  4.680  -35.9456   10.8935  -34.9235   13.0762  -34.8162   13.0190  -37.7355   11.2985  -33.9422   12.3219  -34.3140   12.3814 -172.3860  -32.9653
  4.690  -35.4335   10.7589  -34.4658   12.9022  -34.3533   12.8447  -37.1636   11.1287  -33.4928   12.1778  -33.8725   12.2367 -174.7296  -33.0296
  4.700  -34.9309   10.6360  -34.0145   12.7405  -33.8966   12.6826  -36.6031   10.9734  -33.0494   12.0446  -33.4373   12.1028 -177.4159  -33.0948
  4.710  -34.4374   10.5243  -33.5694   12.5905  -33.4460   12.5323  -36.0538   10.8319  -32.6119   11.9220  -33.0084   11.9793 -180.4172  -33.1611
  4.720  -33.9528   10.4232  -33.1307   12.4518  -33.0014   12.3932  -35.5152   10.7033  -32.1802   11.8095  -32.5857   11.8659 -183.7086  -33.2286
  4.730  -33.4768   10.3323  -32.6980   12.3239  -32.5627   12.2649  -34.9871   10.5871  -31.7541   11.7069  -32.1690   11.7622 -187.2678  -33.2974
  4.740  -33.0093   10.2510  -32.2714   12.2064  -32.1299   12.1471  -34.4690   10.4826  -31.3336   11.6138  -31.7584   11.6679 -191.0751  -33.3676
  4.750  -32.5498   10.1790  -31.8508   12.0989  -31.7028   12.0394  -33.9607   10.3894  -30.9186   11.5299  -31.3536   11.5827 -195.1133  -33.4393
  4.760  -32.0983   10.1160  -31.4359   12.0011  -31.2812   11.9413  -33.4619   10.3068  -30.5090   11.4549  -30.9548   11.5063 -199.3671  -33.5126
  4.770  -31.6544   10.0616  -31.0269   11.9126  -30.8652   11.8527  -32.9721   10.2345  -30.1046   11.3887  -30.5617   11.4384 -203.8237  -33.5875
  4.780  -31.2181   10.0156  -30.6236   11.8333  -30.4545   11.7733  -32.4913   10.1722  -29.7054   11.3311  -30.1744   11.3788 -208.4717  -33.6641
  4.790  -30.7891    9.9776  -30.2258   11.7628  -30.0491   11.7028  -32.0190   10.1193  -29.3114   11.2817  -29.7927   11.3274 -213.3017  -33.7425
  4.800  -30.3672    9.9474  -29.8336   11.7009  -29.6489   11.6410  -31.5551   10.0757  -28.9223   11.2406  -29.4166   11.2838 -218.3055  -33.8227
  4.810  -29.9522    9.9249  -29.4468   11.6474  -29.2538   11.5877  -31.0992   10.0410  -28.5382   11.2075  -29.0462   11.2480 -223.4763  -33.9048
  4.820  -29.5440    9.9097  -29.0653   11.6021  -28.8637   11.5427  -30.6512   10.0151  -28.1590   11.1822  -28.6812   11.2198 -228.8085  -33.9889
  4.830  -29.1425    9.9019  -28.6892   11.5648  -28.4785   11.5059  -30.2109    9.9976  -27.7846   11.1648  -28.3218   11.1989 -234.2970  -34.0750
  4.840  -28.7474    9.9011  -28.3183   11.5353  -28.0982   11.4771  -29.7780    9.9883  -27.4149   11.1551  -27.9679   11.1854 -239.9378  -34.1632
  4.850  -28.3587    9.9072  -27.9526   11.5136  -27.7226   11.4562  -29.3524    9.9872  -27.0499   11.1531  -27.6194   11.1791 -245.7272  -34.2535
  4.860  -27.9762    9.9202  -27.5921   11.4995  -27.3517   11.4431  -28.9338    9.9940  -26.6896   11.1586  -27.2764   11.1798 -251.6620  -34.3460
  4.870  -27.5998    9.9398  -27.2366   11.4928  -26.9854   11.4377  -28.5222   10.0087  -26.3339   11.1717  -26.9388   11.1875 -257.7389  -34.4407
  4.880  -27.2294    9.9661  -26.8862   11.4935  -26.6236   11.4400  -28.1173   10.0311  -25.9827   11.1923  -26.6068   11.2021 -263.9549  -34.5377
  4.890  -26.8649    9.9989  -26.5409   11.5016  -26.2664   11.4498  -27.7190   10.0611  -25.6361   11.2204  -26.2802   11.2234 -270.3067  -34.6370
  4.900  -26.5062   10.0382  -26.2005   11.5168  -25.9135   11.4673  -27.3272   10.0988  -25.2940   11.2560  -25.9592   11.2514 -276.7907  -34.7388
  4.910  -26.1532   10.0840  -25.8651   11.5392  -25.5650   11.4923  -26.9418   10.1440  -24.9564   11.2991  -25.6437   11.2860 -283.4027  -34.8429
  4.920  -25.8058   10.1360  -25.5346   11.5687  -25.2208   11.5248  -26.5627   10.1967  -24.6233   11.3498  -25.3338   11.3272 -290.1381  -34.9495
  4.930  -25.4638   10.1945  -25.2091   11.6054  -24.8809   11.5649  -26.1897   10.2569  -24.2947   11.4082  -25.0295   11.3749 -296.9911  -35.0587
  4.940  -25.1274   10.2592  -24.8884   11.6490  -24.5451   11.6126  -25.8228   10.3247  -23.9706   11.4742  -24.7310   11.4289 -303.9553  -35.1704
  4.950  -24.7962   10.3303  -24.5727   11.6998  -24.2136   11.6680  -25.4619   10.4000  -23.6510   11.5481  -24.4382   11.4893 -311.0231  -35.2847
  4.960  -24.4703   10.4078  -24.2618   11.7576  -23.8861   11.7312  -25.1069   10.4830  -23.3360   11.6298  -24.1512   11.5560 -318.1857  -35.4016
  4.970  -24.1496   10.4916  -23.9558   11.8225  -23.5627   11.8023  -24.7578   10.5738  -23.0255   11.7196  -23.8701   11.6289 -325.4328  -35.5212
  4.980  -23.8340   10.5820  -23.6547   11.8945  -23.2434   11.8813  -24.4145   10.6723  -22.7196   11.8177  -23.5950   11.7080 -332.7530  -35.6435
  4.990  -23.5234   10.6788  -23.3585   11.9738  -22.9281   11.9686  -24.0769   10.7789  -22.4185   11.9241  -23.3260   11.7931 -340.1329  -35.7685
  5.000  -23.2177   10.7824  -23.0671   12.0603  -22.6168   12.0643  -23.7452   10.8937  -22.1221   12.0392  -23.0630   11.8844 -347.5580  -35.8962
  5.010  -22.9169   10.8928  -22.7807   12.1543  -22.3095   12.1686  -23.4192   11.0168  -21.8306   12.1632  -22.8063   11.9816 -355.0118  -36.0267
  5.020  -22.6208   11.0103  -22.4991   12.2559  -22.0063   12.2820  -23.0990   11.1486  -21.5441   12.2964  -22.5558   12.0847 -362.4763  -36.1599
  5.030  -22.3295   11.1351  -22.2225   12.3653  -21.7071   12.4046  -22.7847   11.2894  -21.2629   12.4391  -22.3117   12.1938 -369.9317  -36.2958
  5.040  -22.0428   11.2676  -21.9510   12.4827  -21.4120   12.5370  -22.4763   11.4395  -20.9870   12.5917  -22.0740   12.3088 -377.3568  -36.4345
  5.050  -21.7608   11.4080  -21.6845   12.6084  -21.1212   12.6796  -22.1740   11.5993  -20.7169   12.7547  -21.8429   12.4296 -384.7286  -36.5759
  5.060  -21.4835   11.5570  -21.4233   12.7428  -20.8349   12.8330  -21.8780   11.7693  -20.4528   12.9285  -21.6184   12.5562 -392.0228  -36.7199
  5.070  -21.2109   11.7150  -21.1674   12.8863  -20.5532   12.9977  -21.5886   11.9502  -20.1951   13.1136  -21.4006   12.6888 -399.2135  -36.8667
  5.080  -20.9433   11.8827  -20.9173   13.0393  -20.2766   13.1745  -21.3061   12.1423  -19.9445   13.3107  -21.1896   12.8272 -406.2740  -37.0160
  5.090  -20.6809   12.0607  -20.6731   13.2023  -20.0053   13.3641  -21.0311   12.3465  -19.7016   13.5204  -20.9854   12.9716 -413.1763  -37.1678
  5.100  -20.4241   12.2500  -20.4354   13.3760  -19.7402   13.5673  -20.7643   12.5635  -19.4671   13.7433  -20.7883   13.1221 -419.8916  -37.3221
  5.110  -20.1735   12.4514  -20.2048   13.5610  -19.4818   13.7851  -20.5064   12.7940  -19.2421   13.9800  -20.5984   13.2788 -426.3908  -37.4788
  5.120  -19.9298   12.6658  -19.9819   13.7578  -19.2311   14.0183  -20.2585   13.0388  -19.0277   14.2313  -20.4158   13.4418 -432.6442  -37.6378
  5.130  -19.6942   12.8944  -19.7678   13.9673  -18.9894   14.2680  -20.0219   13.2986  -18.8255   14.4977  -20.2407   13.6115 -438.6223  -37.7990
  5.140  -19.4680   13.1379  -19.5636   14.1899  -18.7579   14.5350  -19.7983   13.5742  -18.6371   14.7796  -20.0736   13.7880 -444.2959  -37.9623
  5.150  -19.2529   13.3974  -19.3708   14.4263  -18.5386   14.8202  -19.5895   13.8660  -18.4644   15.0775  -19.9147   13.9717 -449.6364  -38.1275
  5.160  -19.0510   13.6735  -19.1910   14.6768  -18.3335   15.1243  -19.3978   14.1745  -18.3098   15.3914  -19.7645   14.1628 -454.6160  -38.2946
  5.170  -18.8646   13.9667  -19.0263   14.9415  -18.1448   15.4480  -19.2257   14.4995  -18.1757   15.7211  -19.6237   14.3617 -459.2083  -38.4633
  5.180  -18.6967   14.2769  -18.8788   15.2204  -17.9755   15.7915  -19.0761   14.8407  -18.0648   16.0659  -19.4931   14.5687 -463.3884  -38.6336
  5.190  -18.5501   14.6037  -18.7508   15.5128  -17.8286   16.1546  -18.9520   15.1971  -17.9799   16.4247  -19.3735   14.7841 -467.1333  -38.8053
  5.200  -18.4282   14.9459  -18.6448   15.8177  -17.7073   16.5368  -18.8564   15.5671  -17.9241   16.7958  -19.2661   15.0079 -470.4220  -38.9782
  5.210  -18.3341   15.3017  -18.5633   16.1336  -17.6152   16.9369  -18.7924   15.9484  -17.9000   17.1767  -19.1721   15.2404 -473.2362  -39.1521
  5.220  -18.2707   15.6684  -18.5084   16.4585  -17.5560   17.3530  -18.7628   16.3379  -17.9103   17.5646  -19.0930   15.4813 -475.5598  -39.3268
  5.230  -18.2406   16.0428  -18.4822   16.7896  -17.5332   17.7825  -18.7699   16.7320  -17.9571   17.9558  -19.0304   15.7302 -477.3799  -39.5023
  5.240  -18.2458   16.4210  -18.4861   17.1242  -17.5500   18.2220  -18.8155   17.1264  -18.0419   18.3462  -18.9858   15.9864 -478.6863  -39.6782
  5.250  -18.2875   16.7986  -18.5211   17.4587  -17.6095   18.6674  -18.9003   17.5164  -18.1657   18.7313  -18.9610   16.2490 -479.4721  -39.8544
  5.260  -18.3658   17.1709  -18.5877   17.7898  -17.7140   19.1140  -19.0244   17.8971  -18.3284   19.1063  -18.9577   16.5166 -479.7334  -40.0307
  5.270  -18.4803   17.5336  -18.6855   18.1139  -17.8649   19.5562  -19.1869   18.2635  -18.5293   19.4666  -18.9773   16.7874 -479.4696  -40.2069
  5.280  -18.6294   17.8823  -18.8138   18.4277  -18.0630   19.9883  -19.3858   18.6112  -18.7667   19.8075  -19.0212   17.0595 -478.6832  -40.3828
  5.290  -18.8110   18.2132  -18.9714   18.7280  -18.3078   20.4043  -19.6186   18.9358  -19.0384   20.1249  -19.0905   17.3303 -477.3800  -40.5582
  5.300  -19.0224   18.5231  -19.1564   19.0122  -18.5979   20.7981  -19.8821   19.2339  -19.3413   20.4149  -19.1859   17.5974 -475.5687  -40.7330
  5.310  -19.2607   18.8094  -19.3668   19.2778  -18.9308   21.1641  -20.1726   19.5026  -19.6719   20.6745  -19.3075   17.8578 -473.2609  -40.9069
  5.320  -19.5226   19.0702  -19.6006   19.5227  -19.3032   21.4970  -20.4862   19.7397  -20.0265   20.9011  -19.4553   18.1087 -470.4709  -41.0798
  5.330  -19.8050   19.3040  -19.8554   19.7453  -19.7107   21.7921  -20.8190   19.9440  -20.4009   21.0929  -19.6287   18.3472 -467.2156  -41.2515
  5.340  -20.1048   19.5100  -20.1288   19.9443  -20.1485   22.0457  -21.1670   20.1145  -20.7912   21.2488  -19.8265   18.5705 -463.5140  -41.4219
  5.350  -20.4190   19.6877  -20.4186   20.1186  -20.6113   22.2547  -21.5265   20.2510  -21.1933   21.3681  -20.0473   18.7759 -459.3874  -41.5907
  5.360  -20.7451   19.8370  -20.7223   20.2675  -21.0933   22.4171  -21.8941   20.3539  -21.6034   21.4509  -20.2893   18.9611 -454.8585  -41.7578
  5.370  -21.0804   19.9580  -21.0378   20.3904  -21.5890   22.5319  -22.2665   20.4236  -22.0176   21.4974  -20.5502   19.1240 -449.9515  -41.9232
  5.380  -21.4227   20.0508  -21.3628   20.4869  -22.0925   22.5988  -22.6409   20.4610  -22.4327   21.5086  -20.8277   19.2628 -444.6920  -42.0866
  5.390  -21.7699   20.1160  -21.6951   20.5568  -22.5987   22.6183  -23.0146   20.4673  -22.8455   21.4856  -21.1192   19.3762 -439.1061  -42.2480
  5.400  -22.1200   20.1538  -22.0326   20.6003  -23.1023   22.5917  -23.3852   20.4437  -23.2532   21.4298  -21.4220   19.4631 -433.2206  -42.4072
  5.410  -22.4711   20.1648  -22.3733   20.6172  -23.5987   22.5209  -23.7509   20.3915  -23.6533   21.3427  -21.7333   19.5229 -427.0626  -42.5641
  5.420  -22.8216   20.1497  -22.7152   20.6081  -24.0839   22.4082  -24.1096   20.3121  -24.0435   21.2261  -22.0505   19.5553 -420.6590  -42.7187
  5.430  -23.1697   20.1089  -23.0563   20.5733  -24.5541   22.2562  -24.4597   20.2069  -24.4219   21.0818  -22.3708   19.5604 -414.0365  -42.8709
  5.440  -23.5137   20.0433  -23.3947   20.5133  -25.0062   22.0681  -24.7999   20.0774  -24.7868   20.9118  -22.6917   19.5386 -407.2214  -43.0205
  5.450  -23.8523   19.9536  -23.7287   20.4290  -25.4377   21.8469  -25.1288   19.9250  -25.1369   20.7180  -23.0108   19.4905 -400.2392  -43.1676
  5.460  -24.1838   19.8407  -24.0567   20.3211  -25.8464   21.5960  -25.4454   19.7513  -25.4708   20.5023  -23.3258   19.4170 -393.1144  -43.3121
  5.470  -24.5070   19.7055  -24.3770   20.1905  -26.2308   21.3186  -25.7485   19.5577  -25.7877   20.2666  -23.6347   19.3191 -385.8705  -43.4539
  5.480  -24.8204   19.5489  -24.6881   20.0384  -26.5898   21.0180  -26.0373   19.3457  -26.0868   20.0129  -23.9357   19.1982 -378.5298  -43.5930
  5.490  -25.1228   19.3722  -24.9888   19.8659  -26.9225   20.6974  -26.3112   19.1168  -26.3674   19.7431  -24.2271   19.0557 -371.1134  -43.7294
  5.500  -25.4131   19.1765  -25.2779   19.6743  -27.2286   20.3598  -26.5694   18.8724  -26.6292   19.4589  -24.5075   18.8929 -363.6408  -43.8630
  5.510  -25.6902   18.9630  -25.5542   19.4648  -27.5081   20.0081  -26.8115   18.6140  -26.8718   19.1623  -24.7757   18.7115 -356.1303  -43.9939
  5.520  -25.9533   18.7331  -25.8168   19.2388  -27.7611   19.6450  -27.0370   18.3431  -27.0952   18.8548  -25.0307   18.5130 -348.5987  -44.1220
  5.530  -26.2014   18.4882  -26.0649   18.9978  -27.9881   19.2731  -27.2456   18.0611  -27.2993   18.5381  -25.2718   18.2990 -341.0613  -44.2473
  5.540  -26.4341   18.2295  -26.2980   18.7431  -28.1897   18.8946  -27.4372   17.7694  -27.4843   18.2138  -25.4982   18.0712 -333.5319  -44.3699
  5.550  -26.6507   17.9586  -26.5154   18.4762  -28.3667   18.5117  -27.6117   17.4694  -27.6504   17.8833  -25.7096   17.8310 -326.0232  -44.4897
  5.560  -26.8508   17.6769  -26.7169   18.1985  -28.5201   18.1262  -27.7690   17.1624  -27.7978   17.5482  -25.9056   17.5800 -318.5462  -44.6068
  5.570  -27.0341   17.3858  -26.9021   17.9114  -28.6509   17.7398  -27.9093   16.8497  -27.9271   17.2096  -26.0862   17.3195 -311.1108  -44.7211
  5.580  -27.2006   17.0867  -27.0710   17.6163  -28.7601   17.3539  -28.0328   16.5326  -28.0387   16.8688  -26.2512   17.0511 -303.7259  -44.8327
  5.590  -27.3502   16.7810  -27.2235   17.3145  -28.8490   16.9700  -28.1398   16.2122  -28.1331   16.5270  -26.4008   16.7760 -296.3991  -44.9416
  5.600  -27.4830   16.4699  -27.3598   17.0072  -28.9185   16.5891  -28.2306   15.8897  -28.2108   16.1851  -26.5351   16.4954 -289.1368  -45.0479
  5.610  -27.5991   16.1548  -27.4800   16.6957  -28.9698   16.2121  -28.3057   15.5660  -28.2726   15.8442  -26.6543   16.2105 -281.9449  -45.1515
  5.620  -27.6990   15.8369  -27.5844   16.3811  -29.0041   15.8400  -28.3654   15.2422  -28.3191   15.5051  -26.7589   15.9224 -274.8281  -45.2525
  5.630  -27.7828   15.5173  -27.6734   16.0645  -29.0225   15.4733  -28.4104   14.9193  -28.3510   15.1685  -26.8491   15.6319 -267.7907  -45.3509
  5.640  -27.8512   15.1970  -27.7473   15.7469  -29.0260   15.1126  -28.4412   14.5979  -28.3689   14.8353  -26.9255   15.3402 -260.8360  -45.4468
  5.650  -27.9045   14.8769  -27.8067   15.4292  -29.0156   14.7585  -28.4584   14.2789  -28.3736   14.5059  -26.9883   15.0479 -253.9670  -45.5401
  5.660  -27.9434   14.5581  -27.8520   15.1123  -28.9924   14.4112  -28.4627   13.9629  -28.3658   14.1809  -27.0382   14.7558 -247.1861  -45.6309
  5.670  -27.9685   14.2413  -27.8838   14.7969  -28.9572   14.0711  -28.4546   13.6506  -28.3463   13.8609  -27.0755   14.4647 -240.4953  -45.7193
  5.680  -27.9803   13.9272  -27.9026   14.4837  -28.9110   13.7383  -28.4348   13.3424  -28.3156   13.5462  -27.1009   14.1751 -233.8964  -45.8053
  5.690  -27.9795   13.6165  -27.9091   14.1734  -28.8546   13.4131  -28.4040   13.0389  -28.2745   13.2371  -27.1149   13.8877 -227.3906  -45.8888
  5.700  -27.9667   13.3097  -27.9038   13.8666  -28.7888   13.0955  -28.3629   12.7404  -28.2237   12.9340  -27.1179   13.6029 -220.9792  -45.9701
  5.710  -27.9427   13.0073  -27.8874   13.5636  -28.7143   12.7857  -28.3120   12.4473  -28.1639   12.6370  -27.1106   13.3211 -214.6633  -46.0489
  5.720  -27.9081   12.7099  -27.8603   13.2651  -28.6318   12.4835  -28.2520   12.1599  -28.0956   12.3464  -27.0934   13.0429 -208.4435  -46.1255
  5.730  -27.8635   12.4176  -27.8234   12.9713  -28.5420   12.1890  -28.1836   11.8784  -28.0195   12.0623  -27.0669   12.7685 -202.3208  -46.1999
  5.740  -27.8096   12.1309  -27.7771   12.6825  -28.4455   11.9022  -28.1073   11.6029  -27.9361   11.7847  -27.0315   12.4982 -196.2957  -46.2720
  5.750  -27.7470   11.8500  -27.7220   12.3991  -28.3428   11.6230  -28.0237   11.3337  -27.8461   11.5138  -26.9879   12.2323 -190.3690  -46.3420
  5.760  -27.6764   11.5751  -27.6588   12.1212  -28.2345   11.3514  -27.9334   11.0708  -27.7499   11.2496  -26.9364   11.9710 -184.5412  -46.4098
  5.770  -27.5983   11.3064  -27.5879   11.8491  -28.1212   11.0871  -27.8370   10.8143  -27.6481   10.9921  -26.8776   11.7146 -178.8129  -46.4755
  5.780  -27.5133   11.0439  -27.5099   11.5828  -28.0032   10.8302  -27.7348   10.5642  -27.5411   10.7413  -26.8120   11.4631 -173.1847  -46.5392
  5.790  -27.4219   10.7877  -27.4254   11.3226  -27.8810   10.5804  -27.6275   10.3205  -27.4295   10.4971  -26.7400   11.2167 -167.6570  -46.6008
  5.800  -27.3247   10.5380  -27.3348   11.0684  -27.7550   10.3377  -27.5155   10.0832  -27.3136   10.2594  -26.6621   10.9754 -162.2305  -46.6604
  5.810  -27.2222   10.2945  -27.2386   10.8203  -27.6257   10.1019  -27.3991    9.8523  -27.1938   10.0282  -26.5786   10.7395 -156.9056  -46.7181
  5.820  -27.1148   10.0575  -27.1373   10.5783  -27.4932    9.8729  -27.2789    9.6276  -27.0706    9.8034  -26.4900   10.5088 -151.6828  -46.7738
  5.830  -27.0029    9.8268  -27.0313   10.3423  -27.3581    9.6505  -27.1552    9.4091  -26.9442    9.5849  -26.3966   10.2835 -146.5628  -46.8277
  5.840  -26.8871    9.6023  -26.9210   10.1125  -27.2206    9.4345  -27.0284    9.1968  -26.8151    9.3726  -26.2990   10.0635 -141.5458  -46.8797
  5.850  -26.7676    9.3841  -26.8068    9.8887  -27.0809    9.2249  -26.8988    8.9904  -26.6835    9.1663  -26.1973    9.8488 -136.6324  -46.9299
  5.860  -26.6449    9.1719  -26.6891    9.6709  -26.9395    9.0213  -26.7668    8.7900  -26.5497    8.9659  -26.0920    9.6394 -131.8229  -46.9783
  5.870  -26.5193    8.9657  -26.5682    9.4589  -26.7964    8.8238  -26.6325    8.5953  -26.4141    8.7713  -25.9833    9.4352 -127.1177  -47.0251
  5.880  -26.3912    8.7655  -26.4445    9.2527  -26.6519    8.6321  -26.4964    8.4062  -26.2768    8.5823  -25.8716    9.2363 -122.5172  -47.0701
  5.890  -26.2608    8.5709  -26.3182    9.0523  -26.5064    8.4460  -26.3586    8.2226  -26.1381    8.3988  -25.7572    9.0425 -118.0215  -47.1134
  5.900  -26.1284    8.3821  -26.1896    8.8574  -26.3599    8.2654  -26.2195    8.0444  -25.9982    8.2206  -25.6403    8.8537 -113.6308  -47.1552
  5.910  -25.9942    8.1987  -26.0591    8.6680  -26.2126    8.0902  -26.0791    7.8715  -25.8573    8.0477  -25.5212    8.6699 -109.3453  -47.1954
  5.920  -25.8586    8.0206  -25.9269    8.4839  -26.0647    7.9202  -25.9378    7.7036  -25.7156    7.8798  -25.4001    8.4910 -105.1650  -47.2340
  5.930  -25.7217    7.8478  -25.7931    8.3051  -25.9164    7.7551  -25.7957    7.5406  -25.5732    7.7168  -25.2772    8.3169 -101.0898  -47.2712
  5.940  -25.5838    7.6801  -25.6581    8.1314  -25.7679    7.5950  -25.6530    7.3824  -25.4305    7.5586  -25.1529    8.1474  -97.1195  -47.3069
  5.950  -25.4450    7.5174  -25.5220    7.9626  -25.6192    7.4395  -25.5099    7.2289  -25.2874    7.4050  -25.0272    7.9826  -93.2540  -47.3411
  5.960  -25.3055    7.3594  -25.3850    7.7987  -25.4705    7.2887  -25.3664    7.0799  -25.1441    7.2559  -24.9004    7.8222  -89.4929  -47.3740
  5.970  -25.1655    7.2061  -25.2473    7.6395  -25.3218    7.1422  -25.2227    6.9352  -25.0007    7.1111  -24.7725    7.6663  -85.8358  -47.4056
  5.980  -25.0252    7.0573  -25.1090    7.4848  -25.1734    7.0001  -25.0790    6.7948  -24.8574    6.9705  -24.6439    7.5146  -82.2821  -47.4358
  5.990  -24.8846    6.9128  -24.9703    7.3346  -25.0253    6.8621  -24.9354    6.6585  -24.7143    6.8340  -24.5146    7.3670  -78.8313  -47.4648
  6.000  -24.7439    6.7727  -24.8313    7.1888  -24.8776    6.7281  -24.7920    6.5262  -24.5714    6.7014  -24.3848    7.2235  -75.4826  -47.4925
  6.010  -24.6032    6.6366  -24.6922    7.0471  -24.7303    6.5980  -24.6488    6.3977  -24.4288    6.5727  -24.2546    7.0840  -72.2352  -47.5191
  6.020  -24.4627    6.5045  -24.5531    6.9094  -24.5836    6.4717  -24.5060    6.2729  -24.2867    6.4476  -24.1241    6.9483  -69.0883  -47.5445
  6.030  -24.3224    6.3762  -24.4140    6.7757  -24.4375    6.3490  -24.3636    6.1517  -24.1450    6.3261  -23.9934    6.8163  -66.0407  -47.5687
  6.040  -24.1823    6.2517  -24.2751    6.6458  -24.2921    6.2298  -24.2217    6.0340  -24.0040    6.2081  -23.8627    6.6879  -63.0914  -47.5919
  6.050  -24.0427    6.1308  -24.1365    6.5196  -24.1473    6.1139  -24.0803    5.9197  -23.8635    6.0934  -23.7320    6.5630  -60.2392  -47.6141
  6.060  -23.9035    6.0133  -23.9982    6.3970  -24.0034    6.0014  -23.9396    5.8086  -23.7237    5.9819  -23.6014    6.4416  -57.4828  -47.6352
  6.070  -23.7648    5.8993  -23.8603    6.2778  -23.8603    5.8920  -23.7996    5.7006  -23.5846    5.8735  -23.4710    6.3234  -54.8209  -47.6553
  6.080  -23.6268    5.7884  -23.7229    6.1619  -23.7180    5.7857  -23.6603    5.5957  -23.4463    5.7681  -23.3409    6.2085  -52.2520  -47.6745
  6.090  -23.4893    5.6807  -23.5861    6.0493  -23.5767    5.6824  -23.5218    5.4937  -23.3088    5.6657  -23.2111    6.0966  -49.7746  -47.6928
  6.100  -23.3526    5.5761  -23.4498    5.9399  -23.4362    5.5819  -23.3840    5.3946  -23.1721    5.5660  -23.0817    5.9878  -47.3871  -47.7102
  6.110  -23.2166    5.4744  -23.3142    5.8334  -23.2967    5.4842  -23.2471    5.2981  -23.0363    5.4691  -22.9528    5.8819  -45.0879  -47.7268
  6.120  -23.0813    5.3755  -23.1793    5.7299  -23.1582    5.3891  -23.1111    5.2044  -22.9014    5.3748  -22.8244    5.7788  -42.8753  -47.7426
  6.130  -22.9469    5.2793  -23.0451    5.6292  -23.0207    5.2967  -22.9760    5.1132  -22.7674    5.2831  -22.6965    5.6784  -40.7474  -47.7575
  6.140  -22.8133    5.1858  -22.9117    5.5313  -22.8842    5.2067  -22.8418    5.0244  -22.6343    5.1938  -22.5692    5.5807  -38.7026  -47.7718
  6.150  -22.6806    5.0949  -22.7791    5.4360  -22.7488    5.1191  -22.7086    4.9381  -22.5023    5.1068  -22.4425    5.4856  -36.7389  -47.7853
  6.160  -22.5488    5.0064  -22.6474    5.3432  -22.6144    5.0339  -22.5763    4.8540  -22.3711    5.0222  -22.3165    5.3930  -34.8544  -47.7981
  6.170  -22.4179    4.9204  -22.5165    5.2530  -22.4810    4.9509  -22.4450    4.7722  -22.2410    4.9398  -22.1912    5.3028  -33.0472  -47.8102
  6.180  -22.2879    4.8366  -22.3864    5.1651  -22.3487    4.8701  -22.3146    4.6925  -22.1119    4.8595  -22.0667    5.2149  -31.3154  -47.8217
  6.190  -22.1588    4.7550  -22.2573    5.0795  -22.2175    4.7914  -22.1853    4.6149  -21.9837    4.7813  -21.9428    5.1293  -29.6569  -47.8326
  6.200  -22.0307    4.6757  -22.1291    4.9962  -22.0874    4.7147  -22.0570    4.5394  -21.8566    4.7051  -21.8198    5.0458  -28.0699  -47.8429
  6.210  -21.9036    4.5984  -22.0019    4.9150  -21.9583    4.6400  -21.9297    4.4658  -21.7305    4.6309  -21.6975    4.9645  -26.5521  -47.8527
  6.220  -21.7775    4.5231  -21.8755    4.8360  -21.8304    4.5672  -21.8034    4.3940  -21.6054    4.5585  -21.5760    4.8852  -25.1017  -47.8619
  6.230  -21.6523    4.4497  -21.7502    4.7589  -21.7035    4.4962  -21.6781    4.3241  -21.4814    4.4879  -21.4554    4.8080  -23.7166  -47.8706
  6.240  -21.5282    4.3783  -21.6258    4.6839  -21.5777    4.4270  -21.5539    4.2560  -21.3584    4.4191  -21.3356    4.7326  -22.3948  -47.8789
  6.250  -21.4050    4.3086  -21.5024    4.6107  -21.4530    4.3596  -21.4307    4.1896  -21.2364    4.3520  -21.2166    4.6591  -21.1343  -47.8866
  6.260  -21.2829    4.2408  -21.3799    4.5393  -21.3294    4.2938  -21.3085    4.1248  -21.1154    4.2865  -21.0985    4.5875  -19.9330  -47.8940
  6.270  -21.1617    4.1746  -21.2584    4.4698  -21.2069    4.2296  -21.1873    4.0616  -20.9955    4.2227  -20.9813    4.5175  -18.7889  -47.9009
  6.280  -21.0416    4.1101  -21.1379    4.4019  -21.0854    4.1670  -21.0672    4.0000  -20.8766    4.1603  -20.8649    4.4493  -17.7001  -47.9074
  6.290  -20.9225    4.0472  -21.0184    4.3357  -20.9651    4.1058  -20.9481    3.9398  -20.7587    4.0995  -20.7495    4.3827  -16.6647  -47.9135
  6.300  -20.8043    3.9858  -20.8999    4.2711  -20.8457    4.0462  -20.8300    3.8811  -20.6418    4.0401  -20.6348    4.3177  -15.6806  -47.9193
  6.310  -20.6872    3.9259  -20.7824    4.2081  -20.7275    3.9880  -20.7129    3.8238  -20.5259    3.9821  -20.5211    4.2543  -14.7459  -47.9247
  6.320  -20.5710    3.8675  -20.6658    4.1466  -20.6103    3.9311  -20.5968    3.7679  -20.4111    3.9255  -20.4083    4.1923  -13.8589  -47.9298
  6.330  -20.4559    3.8104  -20.5503    4.0865  -20.4941    3.8756  -20.4817    3.7133  -20.2972    3.8701  -20.2963    4.1318  -13.0175  -47.9345
  6.340  -20.3417    3.7547  -20.4357    4.0279  -20.3790    3.8213  -20.3677    3.6600  -20.1843    3.8161  -20.1852    4.0727  -12.2201  -47.9390
  6.350  -20.2286    3.7004  -20.3221    3.9706  -20.2649    3.7683  -20.2546    3.6079  -20.0725    3.7633  -20.0751    4.0150  -11.4648  -47.9433
  6.360  -20.1164    3.6473  -20.2094    3.9147  -20.1519    3.7165  -20.1425    3.5570  -19.9616    3.7117  -19.9657    3.9586  -10.7498  -47.9472
  6.370  -20.0051    3.5954  -20.0977    3.8600  -20.0398    3.6659  -20.0314    3.5072  -19.8516    3.6612  -19.8573    3.9034  -10.0736  -47.9509
  6.380  -19.8949    3.5448  -19.9870    3.8066  -19.9288    3.6165  -19.9212    3.4586  -19.7427    3.6119  -19.7498    3.8495   -9.4343  -47.9544
  6.390  -19.7855    3.4953  -19.8772    3.7544  -19.8187    3.5681  -19.8120    3.4111  -19.6347    3.5636  -19.6431    3.7969   -8.8304  -47.9576
  6.400  -19.6772    3.4469  -19.7684    3.7034  -19.7096    3.5208  -19.7038    3.3647  -19.5276    3.5164  -19.5373    3.7453   -8.2604  -47.9607
  6.410  -19.5698    3.3996  -19.6605    3.6535  -19.6015    3.4745  -19.5965    3.3192  -19.4215    3.4703  -19.4323    3.6950   -7.7226  -47.9635
  6.420  -19.4633    3.3534  -19.5535    3.6047  -19.4944    3.4293  -19.4901    3.2748  -19.3163    3.4251  -19.3283    3.6457   -7.2156  -47.9661
  6.430  -19.3577    3.3082  -19.4475    3.5570  -19.3883    3.3850  -19.3847    3.2314  -19.2120    3.3810  -19.2250    3.5975   -6.7379  -47.9686
  6.440  -19.2531    3.2640  -19.3424    3.5104  -19.2830    3.3416  -19.2802    3.1888  -19.1086    3.3377  -19.1227    3.5503   -6.2881  -47.9709
  6.450  -19.1494    3.2207  -19.2381    3.4647  -19.1788    3.2992  -19.1766    3.1472  -19.0062    3.2954  -19.0211    3.5042   -5.8650  -47.9731
  6.460  -19.0465    3.1784  -19.1348    3.4200  -19.0754    3.2577  -19.0739    3.1065  -18.9046    3.2539  -18.9204    3.4590   -5.4671  -47.9751
  6.470  -18.9446    3.1370  -19.0324    3.3763  -18.9730    3.2171  -18.9721    3.0666  -18.8039    3.2133  -18.8206    3.4148   -5.0932  -47.9770
  6.480  -18.8435    3.0965  -18.9309    3.3335  -18.8714    3.1772  -18.8712    3.0276  -18.7041    3.1736  -18.7215    3.3715   -4.7421  -47.9787
  6.490  -18.7434    3.0568  -18.8302    3.2916  -18.7708    3.1383  -18.7711    2.9894  -18.6052    3.1347  -18.6233    3.3291   -4.4126  -47.9803
  6.500  -18.6441    3.0180  -18.7304    3.2506  -18.6711    3.1001  -18.6719    2.9520  -18.5071    3.0965  -18.5259    3.2876   -4.1036  -47.9818
  6.510  -18.5456    2.9800  -18.6315    3.2104  -18.5722    3.0627  -18.5736    2.9153  -18.4099    3.0591  -18.4293    3.2469   -3.8140  -47.9832
  6.520  -18.4480    2.9428  -18.5334    3.1711  -18.4742    3.0260  -18.4761    2.8794  -18.3135    3.0225  -18.3335    3.2071   -3.5428  -47.9845
  6.530  -18.3512    2.9063  -18.4361    3.1325  -18.3770    2.9901  -18.3795    2.8442  -18.2179    2.9866  -18.2385    3.1680   -3.2889  -47.9858
  6.540  -18.2553    2.8706  -18.3397    3.0947  -18.2807    2.9548  -18.2837    2.8098  -18.1231    2.9514  -18.1443    3.1298   -3.0514  -47.9869
  6.550  -18.1602    2.8356  -18.2441    3.0577  -18.1853    2.9203  -18.1887    2.7760  -18.0292    2.9169  -18.0508    3.0923   -2.8294  -47.9879
  6.560  -18.0659    2.8013  -18.1493    3.0214  -18.0906    2.8865  -18.0945    2.7429  -17.9361    2.8831  -17.9582    3.0555   -2.6220  -47.9889
  6.570  -17.9724    2.7677  -18.0554    2.9858  -17.9968    2.8533  -18.0011    2.7104  -17.8437    2.8499  -17.8662    3.0195   -2.4284  -47.9898
  6.580  -17.8797    2.7348  -17.9622    2.9509  -17.9038    2.8207  -17.9085    2.6785  -17.7521    2.8174  -17.7751    2.9841   -2.2478  -47.9906
  6.590  -17.7877    2.7025  -17.8698    2.9167  -17.8116    2.7888  -17.8167    2.6473  -17.6613    2.7854  -17.6847    2.9495   -2.0793  -47.9914
  6.600  -17.6966    2.6708  -17.7782    2.8832  -17.7202    2.7574  -17.7256    2.6167  -17.5713    2.7541  -17.5950    2.9155   -1.9224  -47.9921
  6.610  -17.6062    2.6397  -17.6873    2.8503  -17.6295    2.7267  -17.6353    2.5866  -17.4820    2.7234  -17.5060    2.8822   -1.7763  -47.9927
  6.620  -17.5166    2.6093  -17.5973    2.8180  -17.5396    2.6965  -17.5458    2.5572  -17.3935    2.6932  -17.4178    2.8494   -1.6403  -47.9933
  6.630  -17.4277    2.5794  -17.5079    2.7864  -17.4505    2.6669  -17.4570    2.5282  -17.3057    2.6636  -17.3303    2.8173   -1.5138  -47.9939
  6.640  -17.3396    2.5501  -17.4194    2.7553  -17.3622    2.6378  -17.3690    2.4999  -17.2187    2.6345  -17.2435    2.7858   -1.3962  -47.9944
  6.650  -17.2522    2.5213  -17.3315    2.7248  -17.2745    2.6093  -17.2816    2.4720  -17.1323    2.6060  -17.1574    2.7549   -1.2871  -47.9949
  6.660  -17.1655    2.4931  -17.2444    2.6949  -17.1876    2.5812  -17.1950    2.4447  -17.0467    2.5779  -17.0720    2.7246   -1.1857  -47.9953
  6.670  -17.0795    2.4654  -17.1580    2.6655  -17.1015    2.5537  -17.1092    2.4178  -16.9618    2.5504  -16.9872    2.6948   -1.0917  -47.9957
  6.680  -16.9943    2.4382  -17.0723    2.6366  -17.0160    2.5267  -17.0240    2.3914  -16.8776    2.5233  -16.9032    2.6655   -1.0046  -47.9961
  6.690  -16.9097    2.4115  -16.9873    2.6083  -16.9313    2.5001  -16.9395    2.3656  -16.7940    2.4968  -16.8198    2.6368   -0.9238  -47.9964
  6.700  -16.8259    2.3853  -16.9030    2.5805  -16.8472    2.4741  -16.8557    2.3401  -16.7112    2.4707  -16.7371    2.6085   -0.8491  -47.9967
  6.710  -16.7427    2.3595  -16.8194    2.5531  -16.7638    2.4484  -16.7726    2.3152  -16.6290    2.4450  -16.6550    2.5808   -0.7799  -47.9970
  6.720  -16.6602    2.3342  -16.7365    2.5263  -16.6812    2.4232  -16.6901    2.2906  -16.5474    2.4198  -16.5736    2.5536   -0.7160  -47.9973
  6.730  -16.5783    2.3094  -16.6542    2.4999  -16.5991    2.3985  -16.6083    2.2665  -16.4666    2.3951  -16.4929    2.5268   -0.6569  -47.9975
  6.740  -16.4971    2.2850  -16.5726    2.4740  -16.5178    2.3742  -16.5272    2.2428  -16.3863    2.3707  -16.4127    2.5005   -0.6023  -47.9977
  6.750  -16.4166    2.2610  -16.4917    2.4485  -16.4371    2.3502  -16.4467    2.2196  -16.3068    2.3468  -16.3332    2.4747   -0.5519  -47.9979
  6.760  -16.3367    2.2375  -16.4114    2.4235  -16.3571    2.3267  -16.3668    2.1967  -16.2278    2.3233  -16.2544    2.4493   -0.5054  -47.9981
  6.770  -16.2574    2.2143  -16.3317    2.3989  -16.2777    2.3036  -16.2876    2.1742  -16.1495    2.3001  -16.1761    2.4243   -0.4626  -47.9983
  6.780  -16.1788    2.1916  -16.2527    2.3747  -16.1989    2.2809  -16.2090    2.1521  -16.0718    2.2774  -16.0984    2.3998   -0.4232  -47.9984
  6.790  -16.1008    2.1692  -16.1743    2.3509  -16.1208    2.2585  -16.1311    2.1303  -15.9947    2.2550  -16.0214    2.3756   -0.3868  -47.9986
  6.800  -16.0234    2.1472  -16.0965    2.3275  -16.0432    2.2365  -16.0537    2.1090  -15.9182    2.2330  -15.9449    2.3519   -0.3534  -47.9987
  6.810  -15.9466    2.1256  -16.0194    2.3045  -15.9663    2.2149  -15.9769    2.0879  -15.8422    2.2113  -15.8690    2.3286   -0.3227  -47.9988
  6.820  -15.8704    2.1044  -15.9428    2.2819  -15.8900    2.1936  -15.9008    2.0673  -15.7669    2.1900  -15.7937    2.3056   -0.2945  -47.9989
  6.830  -15.7948    2.0835  -15.8668    2.2597  -15.8143    2.1727  -15.8252    2.0469  -15.6922    2.1690  -15.7190    2.2830   -0.2686  -47.9990
  6.840  -15.7198    2.0629  -15.7914    2.2378  -15.7392    2.1521  -15.7502    2.0269  -15.6180    2.1484  -15.6448    2.2608   -0.2448  -47.9991
  6.850  -15.6454    2.0427  -15.7166    2.2162  -15.6646    2.1318  -15.6758    2.0072  -15.5444    2.1281  -15.5712    2.2389   -0.2230  -47.9992
  6.860  -15.5715    2.0228  -15.6424    2.1951  -15.5906    2.1118  -15.6019    1.9879  -15.4714    2.1081  -15.4982    2.2174   -0.2030  -47.9993
  6.870  -15.4982    2.0032  -15.5687    2.1742  -15.5172    2.0922  -15.5286    1.9688  -15.3989    2.0884  -15.4257    2.1963   -0.1847  -47.9994
  6.880  -15.4254    1.9840  -15.4956    2.1537  -15.4444    2.0728  -15.4559    1.9501  -15.3270    2.0691  -15.3538    2.1754   -0.1679  -47.9994
  6.890  -15.3532    1.9650  -15.4231    2.1335  -15.3721    2.0538  -15.3837    1.9316  -15.2556    2.0500  -15.2823    2.1549   -0.1526  -47.9995
  6.900  -15.2816    1.9464  -15.3511    2.1136  -15.3004    2.0350  -15.3121    1.9134  -15.1848    2.0312  -15.2115    2.1348   -0.1386  -47.9995
  6.910  -15.2105    1.9280  -15.2797    2.0940  -15.2292    2.0166  -15.2410    1.8955  -15.1145    2.0127  -15.1411    2.1149   -0.1258  -47.9996
  6.920  -15.1399    1.9099  -15.2088    2.0748  -15.1585    1.9984  -15.1704    1.8779  -15.0447    1.9945  -15.0713    2.0953   -0.1141  -47.9996
  6.930  -15.0699    1.8921  -15.1384    2.0558  -15.0884    1.9805  -15.1004    1.8606  -14.9754    1.9766  -15.0019    2.0761   -0.1034  -47.9997
  6.940  -15.0003    1.8746  -15.0685    2.0371  -15.0187    1.9628  -15.0308    1.8435  -14.9066    1.9589  -14.9331    2.0571   -0.0937  -47.9997
  6.950  -14.9313    1.8574  -14.9992    2.0187  -14.9496    1.9455  -14.9618    1.8267  -14.8383    1.9415  -14.8648    2.0384   -0.0848  -47.9997
  6.960  -14.8628    1.8404  -14.9303    2.0006  -14.8811    1.9283  -14.8933    1.8101  -14.7706    1.9243  -14.7970    2.0200   -0.0768  -47.9997
  6.970  -14.7948    1.8237  -14.8620    1.9827  -14.8130    1.9115  -14.8253    1.7938  -14.7033    1.9074  -14.7296    2.0019   -0.0694  -47.9998
  6.980  -14.7273    1.8072  -14.7942    1.9651  -14.7454    1.8948  -14.7577    1.7777  -14.6365    1.8908  -14.6628    1.9840   -0.0628  -47.9998
  6.990  -14.6602    1.7910  -14.7269    1.9478  -14.6783    1.8785  -14.6907    1.7619  -14.5702    1.8744  -14.5964    1.9665   -0.0567  -47.9998
  7.000  -14.5937    1.7750  -14.6600    1.9307  -14.6117    1.8623  -14.6242    1.7463  -14.5044    1.8582  -14.5305    1.9491   -0.0512  -47.9998
  7.010  -14.5277    1.7592  -14.5937    1.9139  -14.5456    1.8464  -14.5581    1.7309  -14.4391    1.8423  -14.4651    1.9320   -0.0462  -47.9999
  7.020  -14.4621    1.7437  -14.5278    1.8973  -14.4799    1.8307  -14.4925    1.7158  -14.3742    1.8265  -14.4001    1.9152   -0.0416  -47.9999
  7.030  -14.3970    1.7284  -14.4624    1.8810  -14.4147    1.8152  -14.4274    1.7008  -14.3098    1.8110  -14.3356    1.8986   -0.0375  -47.9999
  7.040  -14.3323    1.7134  -14.3975    1.8649  -14.3500    1.8000  -14.3627    1.6861  -14.2458    1.7958  -14.2716    1.8823   -0.0338  -47.9999
  7.050  -14.2681    1.6985  -14.3330    1.8490  -14.2858    1.7850  -14.2985    1.6716  -14.1823    1.7807  -14.2080    1.8661   -0.0304  -47.9999
  7.060  -14.2044    1.6839  -14.2690    1.8333  -14.2220    1.7701  -14.2347    1.6573  -14.1192    1.7659  -14.1448    1.8503   -0.0273  -47.9999
  7.070  -14.1411    1.6695  -14.2054    1.8179  -14.1586    1.7555  -14.1714    1.6432  -14.0566    1.7512  -14.0821    1.8346   -0.0246  -47.9999
  7.080  -14.0783    1.6552  -14.1423    1.8027  -14.0957    1.7411  -14.1086    1.6293  -13.9944    1.7368  -14.0199    1.8192   -0.0221  -47.9999
  7.090  -14.0159    1.6412  -14.0797    1.7877  -14.0333    1.7269  -14.0461    1.6156  -13.9327    1.7225  -13.9580    1.8039   -0.0198  -47.9999
  7.100  -13.9539    1.6274  -14.0174    1.7729  -13.9712    1.7129  -13.9841    1.6021  -13.8713    1.7085  -13.8966    1.7889   -0.0178  -47.9999
  7.110  -13.8924    1.6138  -13.9556    1.7583  -13.9096    1.6990  -13.9226    1.5888  -13.8104    1.6946  -13.8356    1.7741   -0.0159  -48.0000
  7.120  -13.8312    1.6003  -13.8943    1.7439  -13.8485    1.6854  -13.8614    1.5756  -13.7499    1.6809  -13.7750    1.7595   -0.0143  -48.0000
  7.130  -13.7705    1.5871  -13.8333    1.7297  -13.7877    1.6719  -13.8007    1.5627  -13.6899    1.6674  -13.7148    1.7451   -0.0128  -48.0000
  7.140  -13.7103    1.5740  -13.7728    1.7157  -13.7274    1.6586  -13.7404    1.5499  -13.6302    1.6541  -13.6551    1.7309   -0.0114  -48.0000
  7.150  -13.6504    1.5611  -13.7127    1.7018  -13.6675    1.6455  -13.6805    1.5373  -13.5709    1.6410  -13.5957    1.7168   -0.0102  -48.0000
  7.160  -13.5909    1.5484  -13.6530    1.6882  -13.6080    1.6326  -13.6210    1.5248  -13.5121    1.6280  -13.5367    1.7030   -0.0091  -48.0000
  7.170  -13.5319    1.5358  -13.5937    1.6748  -13.5488    1.6198  -13.5619    1.5125  -13.4536    1.6152  -13.4782    1.6894   -0.0082  -48.0000
  7.180  -13.4732    1.5235  -13.5348    1.6615  -13.4901    1.6072  -13.5032    1.5004  -13.3955    1.6026  -13.4200    1.6759   -0.0073  -48.0000
  7.190  -13.4149    1.5113  -13.4763    1.6484  -13.4318    1.5948  -13.4449    1.4885  -13.3378    1.5902  -13.3622    1.6626   -0.0065  -48.0000
  7.200  -13.3570    1.4992  -13.4182    1.6355  -13.3739    1.5825  -13.3870    1.4767  -13.2805    1.5779  -13.3048    1.6495   -0.0058  -48.0000
  7.210  -13.2995    1.4873  -13.3604    1.6227  -13.3163    1.5704  -13.3294    1.4651  -13.2236    1.5657  -13.2477    1.6365   -0.0052  -48.0000
  7.220  -13.2424    1.4756  -13.3031    1.6101  -13.2591    1.5584  -13.2723    1.4536  -13.1670    1.5537  -13.1911    1.6238   -0.0046  -48.0000
  7.230  -13.1857    1.4640  -13.2461    1.5977  -13.2024    1.5466  -13.2155    1.4422  -13.1108    1.5419  -13.1348    1.6112   -0.0041  -48.0000
  7.240  -13.1293    1.4526  -13.1896    1.5854  -13.1459    1.5349  -13.1591    1.4310  -13.0550    1.5302  -13.0789    1.5987   -0.0036  -48.0000
  7.250  -13.0733    1.4413  -13.1333    1.5733  -13.0899    1.5234  -13.1030    1.4200  -12.9996    1.5187  -13.0233    1.5864   -0.0032  -48.0000
  7.260  -13.0177    1.4302  -13.0775    1.5613  -13.0342    1.5121  -13.0473    1.4091  -12.9445    1.5073  -12.9681    1.5743   -0.0029  -48.0000
  7.270  -12.9624    1.4192  -13.0220    1.5495  -12.9789    1.5008  -12.9920    1.3983  -12.8897    1.4960  -12.9133    1.5623   -0.0026  -48.0000
  7.280  -12.9075    1.4084  -12.9669    1.5379  -12.9239    1.4898  -12.9371    1.3877  -12.8353    1.4849  -12.8588    1.5505   -0.0023  -48.0000
  7.290  -12.8529    1.3977  -12.9121    1.5264  -12.8693    1.4788  -12.8824    1.3772  -12.7813    1.4740  -12.8046    1.5388   -0.0020  -48.0000
  7.300  -12.7987    1.3871  -12.8577    1.5150  -12.8151    1.4680  -12.8282    1.3668  -12.7276    1.4631  -12.7508    1.5273   -0.0018  -48.0000
  7.310  -12.7448    1.3766  -12.8037    1.5038  -12.7611    1.4573  -12.7743    1.3566  -12.6742    1.4524  -12.6973    1.5159   -0.0016  -48.0000
  7.320  -12.6913    1.3663  -12.7500    1.4927  -12.7076    1.4468  -12.7207    1.3465  -12.6212    1.4418  -12.6442    1.5047   -0.0014  -48.0000
  7.330  -12.6381    1.3562  -12.6966    1.4817  -12.6543    1.4363  -12.6674    1.3365  -12.5685    1.4314  -12.5914    1.4936   -0.0012  -48.0000
  7.340  -12.5852    1.3461  -12.6435    1.4709  -12.6014    1.4260  -12.6145    1.3267  -12.5162    1.4211  -12.5390    1.4826   -0.0011  -48.0000
  7.350  -12.5327    1.3362  -12.5908    1.4602  -12.5489    1.4159  -12.5620    1.3170  -12.4641    1.4109  -12.4868    1.4718   -0.0010  -48.0000
  7.360  -12.4805    1.3264  -12.5385    1.4497  -12.4966    1.4058  -12.5097    1.3073  -12.4124    1.4008  -12.4350    1.4611   -0.0009  -48.0000
  7.370  -12.4286    1.3167  -12.4864    1.4392  -12.4447    1.3959  -12.4578    1.2978  -12.3610    1.3909  -12.3835    1.4505   -0.0008  -48.0000
  7.380  -12.3771    1.3071  -12.4347    1.4289  -12.3931    1.3861  -12.4062    1.2885  -12.3100    1.3810  -12.3323    1.4400   -0.0007  -48.0000
  7.390  -12.3258    1.2977  -12.3833    1.4187  -12.3418    1.3764  -12.3549    1.2792  -12.2592    1.3713  -12.2815    1.4297   -0.0006  -48.0000
  7.400  -12.2749    1.2884  -12.3322    1.4087  -12.2909    1.3668  -12.3040    1.2700  -12.2088    1.3617  -12.2309    1.4195   -0.0005  -48.0000
  7.410  -12.2243    1.2791  -12.2815    1.3987  -12.2402    1.3573  -12.2533    1.2610  -12.1586    1.3522  -12.1807    1.4095   -0.0005  -48.0000
  7.420  -12.1740    1.2700  -12.2310    1.3889  -12.1899    1.3480  -12.2030    1.2521  -12.1088    1.3428  -12.1307    1.3995   -0.0004  -48.0000
  7.430  -12.1240    1.2610  -12.1809    1.3792  -12.1399    1.3387  -12.1529    1.2432  -12.0593    1.3336  -12.0811    1.3897   -0.0004  -48.0000
  7.440  -12.0743    1.2521  -12.1311    1.3696  -12.0901    1.3296  -12.1032    1.2345  -12.0100    1.3244  -12.0318    1.3799   -0.0003  -48.0000
  7.450  -12.0249    1.2434  -12.0815    1.3601  -12.0407    1.3205  -12.0537    1.2259  -11.9611    1.3153  -11.9827    1.3703   -0.0003  -48.0000
  7.460  -11.9758    1.2347  -12.0323    1.3508  -11.9916    1.3116  -12.0046    1.2174  -11.9124    1.3064  -11.9340    1.3608   -0.0002  -48.0000
  7.470  -11.9270    1.2261  -11.9833    1.3415  -11.9427    1.3028  -11.9557    1.2089  -11.8641    1.2975  -11.8855    1.3515   -0.0002  -48.0000
  7.480  -11.8785    1.2176  -11.9347    1.3323  -11.8942    1.2940  -11.9072    1.2006  -11.8160    1.2888  -11.8373    1.3422   -0.0002  -48.0000
  7.490  -11.8303    1.2092  -11.8863    1.3233  -11.8459    1.2854  -11.8589    1.1924  -11.7682    1.2801  -11.7894    1.3330   -0.0002  -48.0000
  7.500  -11.7823    1.2010  -11.8383    1.3143  -11.7979    1.2769  -11.8109    1.1843  -11.7207    1.2716  -11.7418    1.3240   -0.0002  -48.0000
  7.510  -11.7347    1.1928  -11.7905    1.3055  -11.7502    1.2684  -11.7632    1.1762  -11.6735    1.2631  -11.6945    1.3150   -0.0001  -48.0000
  7.520  -11.6873    1.1847  -11.7430    1.2967  -11.7028    1.2601  -11.7157    1.1683  -11.6265    1.2548  -11.6474    1.3061   -0.0001  -48.0000
  7.530  -11.6402    1.1767  -11.6958    1.2881  -11.6556    1.2518  -11.6686    1.1604  -11.5798    1.2465  -11.6006    1.2974   -0.0001  -48.0000
  7.540  -11.5933    1.1688  -11.6488    1.2795  -11.6087    1.2437  -11.6217    1.1527  -11.5334    1.2383  -11.5541    1.2887   -0.0001  -48.0000
  7.550  -11.5468    1.1610  -11.6021    1.2711  -11.5621    1.2356  -11.5751    1.1450  -11.4872    1.2302  -11.5078    1.2802   -0.0001  -48.0000
  7.560  -11.5005    1.1533  -11.5557    1.2627  -11.5158    1.2276  -11.5287    1.1374  -11.4413    1.2223  -11.4618    1.2717   -0.0001  -48.0000
  7.570  -11.4544    1.1456  -11.5096    1.2545  -11.4697    1.2198  -11.4826    1.1299  -11.3957    1.2144  -11.4161    1.2633   -0.0001  -48.0000
  7.580  -11.4086    1.1381  -11.4637    1.2463  -11.4239    1.2120  -11.4368    1.1225  -11.3503    1.2065  -11.3706    1.2551   -0.0001  -48.0000
  7.590  -11.3631    1.1306  -11.4181    1.2382  -11.3784    1.2043  -11.3913    1.1152  -11.3052    1.1988  -11.3254    1.2469   -0.0001  -48.0000
  7.600  -11.3179    1.1233  -11.3728    1.2302  -11.3331    1.1966  -11.3459    1.1079  -11.2604    1.1912  -11.2805    1.2388   -0.0001  -48.0000
  7.610  -11.2729    1.1160  -11.3277    1.2223  -11.2880    1.1891  -11.3009    1.1008  -11.2158    1.1836  -11.2358    1.2308   -0.0001  -48.0000
  7.620  -11.2281    1.1088  -11.2828    1.2145  -11.2432    1.1816  -11.2561    1.0937  -11.1714    1.1761  -11.1913    1.2229   -0.0001  -48.0000
  7.630  -11.1836    1.1016  -11.2383    1.2068  -11.1987    1.1742  -11.2115    1.0867  -11.1273    1.1687  -11.1471    1.2151   -0.0001  -48.0000
  7.640  -11.1393    1.0946  -11.1939    1.1991  -11.1544    1.1669  -11.1672    1.0797  -11.0834    1.1614  -11.1031    1.2073   -0.0002  -48.0000
  7.650  -11.0953    1.0876  -11.1498    1.1915  -11.1103    1.1597  -11.1232    1.0729  -11.0398    1.1542  -11.0594    1.1997   -0.0002  -48.0000
  7.660  -11.0515    1.0807  -11.1060    1.1841  -11.0665    1.1526  -11.0794    1.0661  -10.9964    1.1470  -11.0159    1.1921   -0.0002  -48.0000
  7.670  -11.0080    1.0739  -11.0624    1.1766  -11.0229    1.1455  -11.0358    1.0594  -10.9532    1.1399  -10.9727    1.1846   -0.0002  -48.0000
  7.680  -10.9647    1.0672  -11.0190    1.1693  -10.9796    1.1385  -10.9924    1.0528  -10.9103    1.1329  -10.9296    1.1772   -0.0003  -48.0000
  7.690  -10.9216    1.0605  -10.9759    1.1621  -10.9365    1.1316  -10.9493    1.0463  -10.8676    1.1260  -10.8868    1.1699   -0.0003  -48.0000
  7.700  -10.8788    1.0539  -10.9330    1.1549  -10.8936    1.1248  -10.9064    1.0398  -10.8251    1.1191  -10.8443    1.1627   -0.0004  -48.0000
  7.710  -10.8362    1.0474  -10.8904    1.1478  -10.8510    1.1180  -10.8638    1.0334  -10.7829    1.1123  -10.8020    1.1555   -0.0004  -48.0000
  7.720  -10.7938    1.0410  -10.8480    1.1408  -10.8086    1.1113  -10.8214    1.0270  -10.7409    1.1056  -10.7599    1.1484   -0.0005  -48.0000
  7.730  -10.7517    1.0346  -10.8058    1.1339  -10.7664    1.1047  -10.7792    1.0208  -10.6991    1.0990  -10.7180    1.1414   -0.0006  -48.0000
  7.740  -10.7097    1.0283  -10.7638    1.1270  -10.7244    1.0982  -10.7372    1.0146  -10.6575    1.0924  -10.6763    1.1345   -0.0007  -48.0000
  7.750  -10.6680    1.0220  -10.7221    1.1202  -10.6827    1.0917  -10.6954    1.0084  -10.6162    1.0859  -10.6349    1.1276   -0.0008  -48.0000
  7.760  -10.6265    1.0159  -10.6805    1.1135  -10.6411    1.0853  -10.6539    1.0024  -10.5750    1.0795  -10.5936    1.1208   -0.0010  -48.0000
  7.770  -10.5852    1.0098  -10.6392    1.1068  -10.5998    1.0789  -10.6126    0.9964  -10.5341    1.0731  -10.5526    1.1141   -0.0011  -48.0000
  7.780  -10.5442    1.0038  -10.5981    1.1002  -10.5587    1.0727  -10.5715    0.9904  -10.4934    1.0668  -10.5118    1.1075   -0.0013  -48.0000
  7.790  -10.5033    0.9978  -10.5573    1.0937  -10.5178    1.0664  -10.5306    0.9846  -10.4529    1.0606  -10.4712    1.1009   -0.0015  -48.0000
  7.800  -10.4627    0.9919  -10.5166    1.0873  -10.4771    1.0603  -10.4899    0.9788  -10.4126    1.0544  -10.4309    1.0944   -0.0017  -48.0000
  7.810  -10.4222    0.9861  -10.4762    1.0809  -10.4367    1.0542  -10.4494    0.9730  -10.3725    1.0483  -10.3907    1.0879   -0.0020  -48.0000
  7.820  -10.3820    0.9803  -10.4359    1.0746  -10.3964    1.0482  -10.4092    0.9673  -10.3326    1.0423  -10.3507    1.0816   -0.0023  -48.0000
  7.830  -10.3420    0.9746  -10.3959    1.0684  -10.3563    1.0423  -10.3691    0.9617  -10.2929    1.0363  -10.3109    1.0753   -0.0027  -48.0000
  7.840  -10.3021    0.9689  -10.3561    1.0622  -10.3165    1.0364  -10.3292    0.9562  -10.2534    1.0304  -10.2713    1.0691   -0.0031  -48.0000
  7.850  -10.2625    0.9633  -10.3165    1.0561  -10.2768    1.0306  -10.2896    0.9507  -10.2141    1.0246  -10.2320    1.0629   -0.0036  -48.0000
  7.860  -10.2231    0.9578  -10.2770    1.0500  -10.2373    1.0248  -10.2501    0.9453  -10.1750    1.0188  -10.1928    1.0568   -0.0042  -48.0000
  7.870  -10.1838    0.9524  -10.2378    1.0440  -10.1980    1.0191  -10.2108    0.9399  -10.1361    1.0131  -10.1538    1.0508   -0.0049  -48.0000
  7.880  -10.1448    0.9470  -10.1988    1.0381  -10.1589    1.0135  -10.1717    0.9346  -10.0974    1.0074  -10.1150    1.0448   -0.0056  -48.0000
  7.890  -10.1059    0.9416  -10.1600    1.0323  -10.1200    1.0079  -10.1328    0.9293  -10.0589    1.0018  -10.0764    1.0389   -0.0065  -48.0000
  7.900  -10.0672    0.9363  -10.1213    1.0265  -10.0813    1.0024  -10.0941    0.9241  -10.0205    0.9963  -10.0379    1.0331   -0.0075  -48.0000
  7.910  -10.0287    0.9311  -10.0829    1.0207  -10.0428    0.9969  -10.0556    0.9190   -9.9824    0.9908   -9.9997    1.0273   -0.0086  -48.0000
  7.920   -9.9904    0.9260  -10.0446    1.0150  -10.0045    0.9915  -10.0173    0.9139   -9.9444    0.9854   -9.9616    1.0216   -0.0100  -48.0000
  7.930   -9.9523    0.9208  -10.0065    1.0094   -9.9663    0.9862   -9.9791    0.9089   -9.9066    0.9800   -9.9238    1.0159   -0.0115  -48.0000
  7.940   -9.9144    0.9158   -9.9686    1.0039   -9.9283    0.9809   -9.9412    0.9039   -9.8690    0.9747   -9.8861    1.0103   -0.0132  -48.0000
  7.950   -9.8766    0.9108   -9.9309    0.9984   -9.8905    0.9757   -9.9034    0.8990   -9.8315    0.9694   -9.8485    1.0048   -0.0152  -48.0000
  7.960   -9.8390    0.9059   -9.8934    0.9929   -9.8529    0.9705   -9.8658    0.8941   -9.7942    0.9642   -9.8112    0.9993   -0.0174  -48.0000
  7.970   -9.8016    0.9010   -9.8561    0.9875   -9.8154    0.9654   -9.8283    0.8893   -9.7571    0.9591   -9.7740    0.9939   -0.0200  -48.0001
  7.980   -9.7643    0.8961   -9.8189    0.9822   -9.7781    0.9603   -9.7911    0.8845   -9.7202    0.9540   -9.7370    0.9885   -0.0229  -48.0001
  7.990   -9.7273    0.8914   -9.7819    0.9769   -9.7410    0.9553   -9.7540    0.8798   -9.6835    0.9490   -9.7002    0.9832   -0.0263  -48.0001
  8.000   -9.6903    0.8866   -9.7451    0.9717   -9.7041    0.9504   -9.7170    0.8752   -9.6469    0.9440   -9.6635    0.9780   -0.0301  -48.0001
  8.010   -9.6536    0.8820   -9.7084    0.9665   -9.6673    0.9455   -9.6803    0.8706   -9.6104    0.9391   -9.6270    0.9728   -0.0344  -48.0001
  8.020   -9.6170    0.8774   -9.6719    0.9614   -9.6307    0.9407   -9.6437    0.8660   -9.5742    0.9342   -9.5907    0.9677   -0.0394  -48.0001
  8.030   -9.5806    0.8728   -9.6356    0.9563   -9.5942    0.9359   -9.6072    0.8616   -9.5381    0.9294   -9.5545    0.9626   -0.0450  -48.0001
  8.040   -9.5443    0.8683   -9.5995    0.9513   -9.5579    0.9311   -9.5710    0.8571   -9.5021    0.9246   -9.5185    0.9576   -0.0513  -48.0001
  8.050   -9.5082    0.8638   -9.5635    0.9464   -9.5218    0.9265   -9.5348    0.8527   -9.4663    0.9199   -9.4826    0.9526   -0.0585  -48.0002
  8.060   -9.4723    0.8594   -9.5277    0.9415   -9.4858    0.9218   -9.4989    0.8484   -9.4307    0.9153   -9.4469    0.9477   -0.0667  -48.0002
  8.070   -9.4365    0.8551   -9.4920    0.9366   -9.4500    0.9173   -9.4631    0.8441   -9.3952    0.9106   -9.4113    0.9429   -0.0759  -48.0002
  8.080   -9.4008    0.8508   -9.4565    0.9318   -9.4143    0.9127   -9.4274    0.8399   -9.3599    0.9061   -9.3759    0.9381   -0.0863  -48.0003
  8.090   -9.3654    0.8465   -9.4212    0.9271   -9.3787    0.9083   -9.3919    0.8357   -9.3247    0.9016   -9.3407    0.9333   -0.0981  -48.0003
  8.100   -9.3300    0.8423   -9.3860    0.9224   -9.3434    0.9039   -9.3566    0.8315   -9.2897    0.8971   -9.3056    0.9286   -0.1114  -48.0003
  8.110   -9.2948    0.8382   -9.3509    0.9178   -9.3081    0.8995   -9.3214    0.8275   -9.2548    0.8927   -9.2706    0.9240   -0.1264  -48.0004
  8.120   -9.2597    0.8341   -9.3161    0.9132   -9.2730    0.8952   -9.2863    0.8234   -9.2200    0.8884   -9.2358    0.9194   -0.1433  -48.0004
  8.130   -9.2248    0.8301   -9.2813    0.9086   -9.2381    0.8909   -9.2514    0.8194   -9.1854    0.8841   -9.2011    0.9149   -0.1623  -48.0005
  8.140   -9.1900    0.8261   -9.2467    0.9041   -9.2033    0.8867   -9.2166    0.8155   -9.1509    0.8798   -9.1666    0.9104   -0.1837  -48.0006
  8.150   -9.1554    0.8221   -9.2123    0.8997   -9.1686    0.8826   -9.1820    0.8116   -9.1166    0.8756   -9.1322    0.9060   -0.2077  -48.0006
  8.160   -9.1209    0.8182   -9.1780    0.8953   -9.1340    0.8785   -9.1475    0.8078   -9.0824    0.8715   -9.0979    0.9016   -0.2346  -48.0007
  8.170   -9.0865    0.8144   -9.1438    0.8910   -9.0996    0.8744   -9.1131    0.8040   -9.0484    0.8674   -9.0638    0.8973   -0.2647  -48.0008
  8.180   -9.0523    0.8106   -9.1098    0.8867   -9.0654    0.8704   -9.0789    0.8003   -9.0144    0.8633   -9.0298    0.8930   -0.2985  -48.0009
  8.190   -9.0182    0.8068   -9.0759    0.8824   -9.0312    0.8665   -9.0448    0.7966   -8.9806    0.8593   -8.9959    0.8888   -0.3363  -48.0010
  8.200   -8.9842    0.8032   -9.0422    0.8782   -8.9972    0.8626   -9.0109    0.7929   -8.9470    0.8554   -8.9622    0.8846   -0.3786  -48.0012
  8.210   -8.9503    0.7995   -9.0086    0.8741   -8.9633    0.8587   -8.9770    0.7893   -8.9134    0.8515   -8.9286    0.8805   -0.4257  -48.0013
  8.220   -8.9166    0.7959   -8.9751    0.8700   -8.9295    0.8549   -8.9433    0.7858   -8.8800    0.8476   -8.8951    0.8765   -0.4783  -48.0015
  8.230   -8.8830    0.7924   -8.9418    0.8660   -8.8959    0.8512   -8.9097    0.7823   -8.8467    0.8438   -8.8617    0.8725   -0.5369  -48.0017
  8.240   -8.8495    0.7889   -8.9085    0.8620   -8.8623    0.8475   -8.8762    0.7789   -8.8135    0.8401   -8.8285    0.8685   -0.6022  -48.0019
  8.250   -8.8161    0.7855   -8.8755    0.8580   -8.8289    0.8438   -8.8429    0.7755   -8.7804    0.8364   -8.7954    0.8646   -0.6747  -48.0022
  8.260   -8.7829    0.7821   -8.8425    0.8541   -8.7956    0.8402   -8.8097    0.7721   -8.7475    0.8327   -8.7624    0.8608   -0.7553  -48.0025
  8.270   -8.7497    0.7787   -8.8096    0.8502   -8.7624    0.8367   -8.7765    0.7689   -8.7147    0.8291   -8.7295    0.8570   -0.8447  -48.0028
  8.280   -8.7167    0.7755   -8.7769    0.8464   -8.7293    0.8332   -8.7435    0.7656   -8.6819    0.8256   -8.6967    0.8532   -0.9439  -48.0031
  8.290   -8.6837    0.7722   -8.7443    0.8427   -8.6964    0.8298   -8.7106    0.7624   -8.6493    0.8221   -8.6640    0.8495   -1.0536  -48.0035
  8.300   -8.6509    0.7690   -8.7119    0.8390   -8.6635    0.8264   -8.6778    0.7593   -8.6168    0.8186   -8.6314    0.8459   -1.1751  -48.0039
  8.310   -8.6182    0.7659   -8.6795    0.8353   -8.6307    0.8231   -8.6452    0.7562   -8.5844    0.8152   -8.5990    0.8423   -1.3093  -48.0044
  8.320   -8.5855    0.7628   -8.6472    0.8317   -8.5981    0.8198   -8.6126    0.7532   -8.5521    0.8119   -8.5666    0.8388   -1.4575  -48.0050
  8.330   -8.5530    0.7598   -8.6151    0.8281   -8.5655    0.8166   -8.5801    0.7502   -8.5199    0.8086   -8.5343    0.8353   -1.6209  -48.0056
  8.340   -8.5206    0.7569   -8.5831    0.8246   -8.5330    0.8134   -8.5477    0.7473   -8.4878    0.8053   -8.5022    0.8319   -1.8010  -48.0062
  8.350   -8.4882    0.7539   -8.5512    0.8211   -8.5006    0.8103   -8.5155    0.7444   -8.4558    0.8022   -8.4701    0.8285   -1.9991  -48.0069
  8.360   -8.4560    0.7511   -8.5193    0.8177   -8.4683    0.8073   -8.4833    0.7416   -8.4239    0.7990   -8.4381    0.8252   -2.2169  -48.0078
  8.370   -8.4238    0.7483   -8.4876    0.8143   -8.4361    0.8043   -8.4512    0.7388   -8.3920    0.7959   -8.4063    0.8220   -2.4562  -48.0087
  8.380   -8.3918    0.7455   -8.4560    0.8110   -8.4040    0.8014   -8.4192    0.7361   -8.3603    0.7929   -8.3745    0.8188   -2.7187  -48.0097
  8.390   -8.3598    0.7429   -8.4245    0.8077   -8.3720    0.7985   -8.3873    0.7334   -8.3286    0.7899   -8.3428    0.8156   -3.0063  -48.0108
  8.400   -8.3278    0.7402   -8.3931    0.8045   -8.3401    0.7957   -8.3554    0.7308   -8.2971    0.7870   -8.3111    0.8125   -3.3213  -48.0120
  8.410   -8.2960    0.7377   -8.3618    0.8014   -8.3082    0.7929   -8.3237    0.7283   -8.2656    0.7842   -8.2796    0.8095   -3.6658  -48.0133
  8.420   -8.2643    0.7352   -8.3306    0.7982   -8.2764    0.7902   -8.2920    0.7258   -8.2342    0.7814   -8.2481    0.8065   -4.0423  -48.0148
  8.430   -8.2326    0.7327   -8.2994    0.7952   -8.2447    0.7876   -8.2604    0.7234   -8.2028    0.7786   -8.2167    0.8036   -4.4531  -48.0165
  8.440   -8.2010    0.7303   -8.2684    0.7921   -8.2130    0.7850   -8.2289    0.7210   -8.1716    0.7759   -8.1854    0.8008   -4.9012  -48.0183
  8.450   -8.1694    0.7280   -8.2374    0.7892   -8.1814    0.7825   -8.1975    0.7187   -8.1404    0.7733   -8.1542    0.7980   -5.3893  -48.0202
  8.460   -8.1379    0.7257   -8.2065    0.7863   -8.1499    0.7801   -8.1661    0.7165   -8.1092    0.7707   -8.1230    0.7953   -5.9206  -48.0224
  8.470   -8.1065    0.7236   -8.1758    0.7834   -8.1184    0.7777   -8.1348    0.7143   -8.0782    0.7682   -8.0919    0.7926   -6.4982  -48.0248
  8.480   -8.0751    0.7214   -8.1450    0.7806   -8.0870    0.7754   -8.1035    0.7122   -8.0472    0.7658   -8.0608    0.7900   -7.1256  -48.0274
  8.490   -8.0438    0.7194   -8.1144    0.7779   -8.0556    0.7732   -8.0723    0.7101   -8.0162    0.7634   -8.0298    0.7875   -7.8065  -48.0303
  8.500   -8.0125    0.7174   -8.0839    0.7752   -8.0243    0.7710   -8.0412    0.7081   -7.9853    0.7611   -7.9989    0.7850   -8.5449  -48.0334
  8.510   -7.9813    0.7155   -8.0534    0.7725   -7.9931    0.7689   -8.0101    0.7062   -7.9545    0.7589   -7.9680    0.7826   -9.3447  -48.0369
  8.520   -7.9502    0.7136   -8.0229    0.7699   -7.9619    0.7669   -7.9791    0.7044   -7.9237    0.7567   -7.9372    0.7803  -10.2105  -48.0406
  8.530   -7.9190    0.7119   -7.9926    0.7674   -7.9307    0.7650   -7.9481    0.7026   -7.8930    0.7546   -7.9064    0.7781  -11.1467  -48.0447
  8.540   -7.8879    0.7102   -7.9623    0.7650   -7.8995    0.7631   -7.9172    0.7009   -7.8623    0.7526   -7.8756    0.7759  -12.1584  -48.0492
  8.550   -7.8569    0.7086   -7.9321    0.7626   -7.8684    0.7613   -7.8863    0.6993   -7.8316    0.7506   -7.8449    0.7738  -13.2507  -48.0541
  8.560   -7.8258    0.7071   -7.9019    0.7602   -7.8374    0.7596   -7.8554    0.6978   -7.8010    0.7487   -7.8142    0.7718  -14.4292  -48.0594
  8.570   -7.7948    0.7056   -7.8718    0.7579   -7.8063    0.7580   -7.8246    0.6964   -7.7704    0.7469   -7.7836    0.7698  -15.6996  -48.0651
  8.580   -7.7638    0.7043   -7.8417    0.7557   -7.7753    0.7565   -7.7938    0.6950   -7.7398    0.7452   -7.7530    0.7680  -17.0682  -48.0714
  8.590   -7.7328    0.7030   -7.8117    0.7536   -7.7442    0.7551   -7.7630    0.6937   -7.7092    0.7436   -7.7224    0.7662  -18.5415  -48.0782
  8.600   -7.7019    0.7019   -7.7818    0.7515   -7.7132    0.7538   -7.7322    0.6925   -7.6787    0.7420   -7.6918    0.7645  -20.1263  -48.0856
  8.610   -7.6709    0.7008   -7.7519    0.7495   -7.6822    0.7526   -7.7015    0.6915   -7.6482    0.7406   -7.6613    0.7629  -21.8301  -48.0936
  8.620   -7.6400    0.6999   -7.7220    0.7475   -7.6512    0.7514   -7.6708    0.6905   -7.6177    0.7392   -7.6307    0.7614  -23.6604  -48.1023
  8.630   -7.6090    0.6990   -7.6921    0.7457   -7.6202    0.7504   -7.6401    0.6896   -7.5872    0.7380   -7.6002    0.7600  -25.6256  -48.1117
  8.640   -7.5780    0.6983   -7.6623    0.7439   -7.5892    0.7495   -7.6093    0.6888   -7.5567    0.7368   -7.5696    0.7587  -27.7341  -48.1219
  8.650   -7.5471    0.6976   -7.6326    0.7422   -7.5582    0.7487   -7.5786    0.6881   -7.5262    0.7357   -7.5391    0.7575  -29.9950  -48.1330
  8.660   -7.5161    0.6971   -7.6028    0.7405   -7.5272    0.7481   -7.5479    0.6875   -7.4957    0.7348   -7.5085    0.7564  -32.4178  -48.1449
  8.670   -7.4850    0.6967   -7.5731    0.7390   -7.4961    0.7475   -7.5172    0.6871   -7.4651    0.7339   -7.4780    0.7554  -35.0126  -48.1577
  8.680   -7.4540    0.6965   -7.5434    0.7375   -7.4650    0.7471   -7.4864    0.6868   -7.4346    0.7332   -7.4474    0.7546  -37.7898  -48.1716
  8.690   -7.4229    0.6964   -7.5137    0.7361   -7.4339    0.7469   -7.4556    0.6866   -7.4040    0.7326   -7.4168    0.7538  -40.7605  -48.1866
  8.700   -7.3918    0.6964   -7.4840    0.7348   -7.4027    0.7468   -7.4248    0.6865   -7.3734    0.7321   -7.3861    0.7532  -43.9360  -48.2028
  8.710   -7.3606    0.6966   -7.4543    0.7336   -7.3715    0.7468   -7.3940    0.6866   -7.3428    0.7317   -7.3554    0.7527  -47.3282  -48.2201
  8.720   -7.3294    0.6969   -7.4246    0.7325   -7.3402    0.7470   -7.3631    0.6868   -7.3121    0.7315   -7.3247    0.7524  -50.9497  -48.2389
  8.730   -7.2981    0.6974   -7.3950    0.7315   -7.3089    0.7473   -7.3322    0.6872   -7.2813    0.7314   -7.2940    0.7522  -54.8130  -48.2590
  8.740   -7.2667    0.6980   -7.3653    0.7306   -7.2775    0.7479   -7.3013    0.6877   -7.2505    0.7315   -7.2631    0.7522  -58.9313  -48.2807
  8.750   -7.2353    0.6989   -7.3356    0.7298   -7.2460    0.7486   -7.2702    0.6884   -7.2197    0.7318   -7.2322    0.7523  -63.3183  -48.3039
  8.760   -7.2038    0.6999   -7.3059    0.7291   -7.2144    0.7495   -7.2392    0.6893   -7.1888    0.7322   -7.2013    0.7526  -67.9875  -48.3289
  8.770   -7.1721    0.7012   -7.2761    0.7285   -7.1828    0.7506   -7.2080    0.6904   -7.1578    0.7328   -7.1703    0.7531  -72.9531  -48.3557
  8.780   -7.1404    0.7026   -7.2464    0.7280   -7.1510    0.7519   -7.1768    0.6917   -7.1267    0.7335   -7.1391    0.7537  -78.2292  -48.3845
  8.790   -7.1086    0.7043   -7.2166    0.7277   -7.1191    0.7535   -7.1454    0.6932   -7.0955    0.7345   -7.1079    0.7546  -83.8300  -48.4153
  8.800   -7.0767    0.7062   -7.1867    0.7275   -7.0871    0.7553   -7.1140    0.6949   -7.0642    0.7357   -7.0766    0.7556  -89.7698  -48.4483
  8.810   -7.0446    0.7084   -7.1569    0.7275   -7.0550    0.7573   -7.0825    0.6968   -7.0328    0.7371   -7.0452    0.7569  -96.0627  -48.4836
  8.820   -7.0124    0.7109   -7.1269    0.7276   -7.0228    0.7597   -7.0509    0.6990   -7.0013    0.7387   -7.0137    0.7585 -102.7226  -48.5213
  8.830   -6.9800    0.7136   -7.0969    0.7278   -6.9904    0.7623   -7.0191    0.7015   -6.9697    0.7406   -6.9820    0.7602 -109.7633  -48.5617
  8.840   -6.9475    0.7166   -7.0669    0.7282   -6.9579    0.7652   -6.9873    0.7042   -6.9379    0.7428   -6.9502    0.7623 -117.1979  -48.6047
  8.850   -6.9148    0.7200   -7.0368    0.7288   -6.9251    0.7685   -6.9552    0.7073   -6.9060    0.7452   -6.9183    0.7646 -125.0393  -48.6507
  8.860   -6.8820    0.7237   -7.0066    0.7295   -6.8923    0.7721   -6.9231    0.7106   -6.8739    0.7479   -6.8862    0.7672 -133.2997  -48.6997
  8.870   -6.8490    0.7278   -6.9763    0.7304   -6.8592    0.7761   -6.8908    0.7143   -6.8417    0.7509   -6.8539    0.7701 -141.9907  -48.7519
  8.880   -6.8157    0.7322   -6.9459    0.7316   -6.8259    0.7805   -6.8583    0.7184   -6.8092    0.7543   -6.8215    0.7734 -151.1230  -48.8074
  8.890   -6.7823    0.7371   -6.9155    0.7329   -6.7925    0.7853   -6.8257    0.7228   -6.7766    0.7581   -6.7888    0.7770 -160.7067  -48.8665
  8.900   -6.7486    0.7425   -6.8849    0.7344   -6.7588    0.7906   -6.7929    0.7277   -6.7438    0.7622   -6.7560    0.7810 -170.7509  -48.9292
  8.910   -6.7147    0.7483   -6.8542    0.7362   -6.7249    0.7964   -6.7599    0.7330   -6.7108    0.7667   -6.7230    0.7855 -181.2637  -48.9958
  8.920   -6.6806    0.7547   -6.8233    0.7383   -6.6907    0.8027   -6.7267    0.7387   -6.6775    0.7717   -6.6897    0.7904 -192.2523  -49.0665
  8.930   -6.6462    0.7616   -6.7924    0.7405   -6.6563    0.8096   -6.6933    0.7450   -6.6441    0.7772   -6.6562    0.7957 -203.7227  -49.1413
  8.940   -6.6115    0.7692   -6.7613    0.7431   -6.6216    0.8171   -6.6597    0.7519   -6.6103    0.7832   -6.6225    0.8016 -215.6801  -49.2206
  8.950   -6.5766    0.7774   -6.7300    0.7460   -6.5867    0.8252   -6.6258    0.7593   -6.5764    0.7897   -6.5885    0.8080 -228.1283  -49.3044
  8.960   -6.5414    0.7863   -6.6986    0.7491   -6.5515    0.8341   -6.5918    0.7673   -6.5421    0.7968   -6.5543    0.8151 -241.0700  -49.3930
  8.970   -6.5059    0.7959   -6.6670    0.7526   -6.5160    0.8437   -6.5575    0.7761   -6.5076    0.8046   -6.5197    0.8228 -254.5068  -49.4865
  8.980   -6.4701    0.8064   -6.6353    0.7565   -6.4803    0.8542   -6.5230    0.7856   -6.4728    0.8131   -6.4849    0.8312 -268.4388  -49.5852
  8.990   -6.4340    0.8178   -6.6033    0.7607   -6.4442    0.8656   -6.4882    0.7959   -6.4377    0.8223   -6.4498    0.8403 -282.8650  -49.6891
  9.000   -6.3976    0.8302   -6.5711    0.7654   -6.4079    0.8780   -6.4532    0.8070   -6.4023    0.8324   -6.4145    0.8503 -297.7826  -49.7986
  9.010   -6.3609    0.8437   -6.5388    0.7704   -6.3713    0.8915   -6.4180    0.8191   -6.3666    0.8434   -6.3788    0.8611 -313.1874  -49.9137
  9.020   -6.3239    0.8583   -6.5062    0.7760   -6.3344    0.9061   -6.3825    0.8322   -6.3307    0.8553   -6.3428    0.8729 -329.0732  -50.0346
  9.030   -6.2866    0.8741   -6.4733    0.7820   -6.2972    0.9220   -6.3469    0.8464   -6.2944    0.8683   -6.3065    0.8858 -345.4317  -50.1616
  9.040   -6.2491    0.8913   -6.4402    0.7886   -6.2599    0.9393   -6.3110    0.8618   -6.2578    0.8824   -6.2700    0.8998 -362.2525  -50.2947
  9.050   -6.2113    0.9101   -6.4069    0.7957   -6.2223    0.9580   -6.2750    0.8785   -6.2210    0.8977   -6.2332    0.9151 -379.5222  -50.4342
  9.060   -6.1733    0.9304   -6.3733    0.8035   -6.1845    0.9784   -6.2389    0.8966   -6.1839    0.9145   -6.1961    0.9317 -397.2244  -50.5801
  9.070   -6.1352    0.9525   -6.3394    0.8119   -6.1467    1.0006   -6.2027    0.9162   -6.1466    0.9327   -6.1588    0.9498 -415.3392  -50.7328
  9.080   -6.0970    0.9766   -6.3052    0.8211   -6.1087    1.0248   -6.1665    0.9375   -6.1091    0.9525   -6.1213    0.9696 -433.8427  -50.8922
  9.090   -6.0588    1.0028   -6.2708    0.8311   -6.0709    1.0510   -6.1303    0.9606   -6.0715    0.9741   -6.0838    0.9910 -452.7066  -51.0586
  9.100   -6.0206    1.0312   -6.2360    0.8419   -6.0332    1.0795   -6.0943    0.9857   -6.0338    0.9976   -6.0461    1.0145 -471.8972  -51.2320
  9.110   -5.9828    1.0622   -6.2010    0.8536   -5.9958    1.1106   -6.0585    1.0129   -5.9962    1.0233   -6.0085    1.0400 -491.3755  -51.4126
  9.120   -5.9453    1.0960   -6.1657    0.8663   -5.9589    1.1443   -6.0231    1.0423   -5.9587    1.0512   -5.9711    1.0678 -511.0964  -51.6004
  9.130   -5.9084    1.1327   -6.1300    0.8801   -5.9227    1.1810   -5.9884    1.0743   -5.9215    1.0816   -5.9340    1.0981 -531.0079  -51.7955
  9.140   -5.8724    1.1726   -6.0941    0.8951   -5.8875    1.2208   -5.9544    1.1089   -5.8848    1.1147   -5.8974    1.1311 -551.0513  -51.9980
  9.150   -5.8376    1.2159   -6.0580    0.9113   -5.8535    1.2640   -5.9216    1.1464   -5.8489    1.1508   -5.8615    1.1670 -571.1601  -52.2079
  9.160   -5.8044    1.2630   -6.0215    0.9289   -5.8212    1.3108   -5.8901    1.1868   -5.8139    1.1899   -5.8266    1.2061 -591.2607  -52.4252
  9.170   -5.7732    1.3140   -5.9849    0.9481   -5.7911    1.3615   -5.8603    1.2305   -5.7803    1.2325   -5.7930    1.2485 -611.2712  -52.6499
  9.180   -5.7445    1.3692   -5.9481    0.9689   -5.7636    1.4161   -5.8328    1.2775   -5.7485    1.2786   -5.7613    1.2945 -631.1023  -52.8818
  9.190   -5.7191    1.4287   -5.9111    0.9915   -5.7395    1.4749   -5.8080    1.3279   -5.7189    1.3285   -5.7317    1.3442 -650.6571  -53.1209
  9.200   -5.6977    1.4926   -5.8741    1.0160   -5.7194    1.5378   -5.7865    1.3817   -5.6921    1.3823   -5.7050    1.3978 -669.8318  -53.3670
  9.210   -5.6811    1.5610   -5.8371    1.0427   -5.7042    1.6048   -5.7690    1.4390   -5.6688    1.4400   -5.6818    1.4554 -688.5159  -53.6201
  9.220   -5.6704    1.6336   -5.8002    1.0717   -5.6950    1.6758   -5.7562    1.4995   -5.6497    1.5017   -5.6629    1.5168 -706.5936  -53.8797
  9.230   -5.6666    1.7101   -5.7636    1.1033   -5.6925    1.7502   -5.7490    1.5629   -5.6358    1.5671   -5.6490    1.5821 -723.9444  -54.1458
  9.240   -5.6710    1.7901   -5.7274    1.1376   -5.6981    1.8276   -5.7481    1.6287   -5.6279    1.6360   -5.6413    1.6508 -740.4445  -54.4179
  9.250   -5.6846    1.8725   -5.6919    1.1749   -5.7126    1.9069   -5.7543    1.6963   -5.6271    1.7079   -5.6405    1.7223 -755.9685  -54.6957
  9.260   -5.7087    1.9563   -5.6573    1.2154   -5.7372    1.9871   -5.7685    1.7647   -5.6341    1.7818   -5.6476    1.7960 -770.3906  -54.9788
  9.270   -5.7443    2.0398   -5.6239    1.2594   -5.7725    2.0665   -5.7911    1.8327   -5.6501    1.8567   -5.6637    1.8707 -783.5867  -55.2668
  9.280   -5.7921    2.1210   -5.5921    1.3071   -5.8193    2.1433   -5.8227    1.8988   -5.6755    1.9314   -5.6892    1.9450 -795.4363  -55.5591
  9.290   -5.8524    2.1977   -5.5624    1.3588   -5.8775    2.2154   -5.8633    1.9616   -5.7110    2.0041   -5.7247    2.0174 -805.8241  -55.8552
  9.300   -5.9250    2.2673   -5.5353    1.4147   -5.9469    2.2806   -5.9126    2.0193   -5.7565    2.0730   -5.7703    2.0860 -814.6424  -56.1546
  9.310   -6.0090    2.3272   -5.5115    1.4749   -6.0265    2.3365   -5.9698    2.0702   -5.8117    2.1362   -5.8255    2.1488 -821.7928  -56.4566
  9.320   -6.1029    2.3749   -5.4917    1.5395   -6.1148    2.3810   -6.0338    2.1130   -5.8756    2.1919   -5.8894    2.2041 -827.1883  -56.7606
  9.330   -6.2042    2.4085   -5.4769    1.6086   -6.2096    2.4125   -6.1030    2.1463   -5.9468    2.2384   -5.9606    2.2502 -830.7546  -57.0659
  9.340   -6.3102    2.4263   -5.4679    1.6821   -6.3084    2.4298   -6.1755    2.1694   -6.0237    2.2746   -6.0374    2.2859 -832.4324  -57.3718
  9.350   -6.4177    2.4277   -5.4659    1.7595   -6.4085    2.4325   -6.2494    2.1822   -6.1040    2.2997   -6.1176    2.3106 -832.1780  -57.6776
  9.360   -6.5233    2.4130   -5.4721    1.8404   -6.5071    2.4207   -6.3229    2.1850   -6.1858    2.3136   -6.1992    2.3241 -829.9650  -57.9826
  9.370   -6.6241    2.3832   -5.4878    1.9239   -6.6016    2.3955   -6.3943    2.1785   -6.2672    2.3168   -6.2803    2.3268 -825.7845  -58.2861
  9.380   -6.7176    2.3401   -5.5140    2.0089   -6.6900    2.3583   -6.4623    2.1639   -6.3464    2.3102   -6.3592    2.3197 -819.6464  -58.5873
  9.390   -6.8019    2.2858   -5.5519    2.0937   -6.7707    2.3109   -6.5262    2.1423   -6.4223    2.2947   -6.4349    2.3039 -811.5788  -58.8856
  9.400   -6.8758    2.2229   -5.6022    2.1765   -6.8428    2.2553   -6.5855    2.1150   -6.4942    2.2717   -6.5064    2.2806 -801.6284  -59.1802
  9.410   -6.9389    2.1536   -5.6655    2.2549   -6.9057    2.1934   -6.6403    2.0831   -6.5617    2.2423   -6.5735    2.2508 -789.8595  -59.4704
  9.420   -6.9913    2.0802   -5.7416    2.3264   -6.9594    2.1270   -6.6908    2.0474   -6.6248    2.2073   -6.6361    2.2155 -776.3534  -59.7557
  9.430   -7.0334    2.0045   -5.8298    2.3882   -7.0043    2.0576   -6.7371    2.0086   -6.6834    2.1674   -6.6943    2.1755 -761.2074  -60.0355
  9.440   -7.0660    1.9280   -5.9287    2.4377   -7.0407    1.9863   -6.7797    1.9668   -6.7377    2.1231   -6.7481    2.1310 -744.5330  -60.3091
  9.450   -7.0900    1.8519   -6.0359    2.4726   -7.0692    1.9143   -6.8187    1.9222   -6.7875    2.0746   -6.7974    2.0824 -726.4546  -60.5761
  9.460   -7.1063    1.7769   -6.1488    2.4912   -7.0905    1.8423   -6.8541    1.8748   -6.8327    2.0221   -6.8422    2.0299 -707.1071  -60.8359
  9.470   -7.1158    1.7036   -6.2639    2.4923   -7.1050    1.7708   -6.8856    1.8248   -6.8731    1.9659   -6.8821    1.9737 -686.6344  -61.0882
  9.480   -7.1192    1.6325   -6.3779    2.4760   -7.1132    1.7005   -6.9131    1.7722   -6.9081    1.9065   -6.9167    1.9143 -665.1870  -61.3327
  9.490   -7.1171    1.5637   -6.4874    2.4429   -7.1157    1.6316   -6.9361    1.7173   -6.9374    1.8442   -6.9456    1.8521 -642.9199  -61.5690
  9.500   -7.1102    1.4976   -6.5894    2.3947   -7.1130    1.5646   -6.9544    1.6605   -6.9606    1.7798   -6.9685    1.7878 -619.9900  -61.7968
  9.510   -7.0990    1.4342   -6.6815    2.3335   -7.1053    1.4998   -6.9676    1.6025   -6.9777    1.7140   -6.9853    1.7222 -596.5545  -62.0160
  9.520   -7.0841    1.3736   -6.7622    2.2619   -7.0934    1.4376   -6.9757    1.5438   -6.9884    1.6477   -6.9958    1.6561 -572.7682  -62.2265
  9.530   -7.0658    1.3161   -6.8304    2.1826   -7.0775    1.3780   -6.9787    1.4852   -6.9931    1.5818   -7.0002    1.5904 -548.7822  -62.4282
  9.540   -7.0446    1.2615   -6.8859    2.0982   -7.0583    1.3214   -6.9769    1.4272   -6.9921    1.5169   -6.9990    1.5257 -524.7416  -62.6210
  9.550   -7.0209    1.2100   -6.9291    2.0111   -7.0361    1.2677   -6.9704    1.3705   -6.9857    1.4538   -6.9924    1.4628 -500.7838  -62.8051
  9.560   -6.9952    1.1615   -6.9606    1.9232   -7.0114    1.2172   -6.9597    1.3155   -6.9745    1.3930   -6.9811    1.4021 -477.0378  -62.9804
  9.570   -6.9677    1.1159   -6.9814    1.8363   -6.9847    1.1697   -6.9453    1.2626   -6.9591    1.3348   -6.9656    1.3440 -453.6221  -63.1471
  9.580   -6.9388    1.0731   -6.9926    1.7516   -6.9563    1.1251   -6.9276    1.2121   -6.9401    1.2794   -6.9466    1.2889 -430.6446  -63.3053
  9.590   -6.9089    1.0331   -6.9956    1.6700   -6.9266    1.0835   -6.9071    1.1641   -6.9181    1.2272   -6.9245    1.2367 -408.2015  -63.4554
  9.600   -6.8781    0.9958   -6.9913    1.5922   -6.8959    1.0446   -6.8843    1.1187   -6.8935    1.1780   -6.8999    1.1877 -386.3770  -63.5973
  9.610   -6.8467    0.9608   -6.9810    1.5185   -6.8645    1.0083   -6.8595    1.0759   -6.8669    1.1319   -6.8732    1.1417 -365.2429  -63.7316
  9.620   -6.8150    0.9283   -6.9656    1.4491   -6.8326    0.9745   -6.8331    1.0358   -6.8387    1.0888   -6.8450    1.0987 -344.8590  -63.8583
  9.630   -6.7830    0.8979   -6.9461    1.3841   -6.8004    0.9430   -6.8055    0.9981   -6.8093    1.0486   -6.8156    1.0586 -325.2732  -63.9778
  9.640   -6.7509    0.8695   -6.9232    1.3234   -6.7681    0.9137   -6.7770    0.9629   -6.7789    1.0111   -6.7852    1.0212 -306.5217  -64.0905
  9.650   -6.7188    0.8430   -6.8976    1.2668   -6.7357    0.8863   -6.7477    0.9300   -6.7479    0.9762   -6.7542    0.9863 -288.6298  -64.1966
  9.660   -6.6868    0.8183   -6.8699    1.2142   -6.7035    0.8608   -6.7180    0.8992   -6.7164    0.9437   -6.7227    0.9539 -271.6126  -64.2964
  9.670   -6.6550    0.7951   -6.8406    1.1654   -6.6714    0.8370   -6.6879    0.8704   -6.6847    0.9135   -6.6910    0.9237 -255.4755  -64.3903
  9.680   -6.6234    0.7735   -6.8100    1.1200   -6.6395    0.8147   -6.6577    0.8435   -6.6529    0.8853   -6.6592    0.8955 -240.2156  -64.4785
  9.690   -6.5921    0.7532   -6.7785    1.0779   -6.6079    0.7939   -6.6274    0.8184   -6.6211    0.8590   -6.6274    0.8693 -225.8222  -64.5615
  9.700   -6.5612    0.7343   -6.7465    1.0388   -6.5767    0.7744   -6.5971    0.7949   -6.5894    0.8345   -6.5957    0.8449 -212.2779  -64.6395
  9.710   -6.5306    0.7164   -6.7140    1.0026   -6.5458    0.7561   -6.5669    0.7729   -6.5579    0.8117   -6.5642    0.8220 -199.5598  -64.7129
  9.720   -6.5003    0.6997   -6.6813    0.9689   -6.5153    0.7390   -6.5369    0.7523   -6.5267    0.7903   -6.5330    0.8007 -187.6400  -64.7818
  9.730   -6.4705    0.6840   -6.6486    0.9375   -6.4852    0.7229   -6.5071    0.7330   -6.4958    0.7703   -6.5021    0.7807 -176.4870  -64.8467
  9.740   -6.4411    0.6691   -6.6159    0.9084   -6.4555    0.7077   -6.4776    0.7149   -6.4652    0.7516   -6.4715    0.7620 -166.0660  -64.9077
  9.750   -6.4120    0.6552   -6.5834    0.8812   -6.4262    0.6934   -6.4484    0.6979   -6.4349    0.7341   -6.4412    0.7445 -156.3404  -64.9652
  9.760   -6.3834    0.6420   -6.5511    0.8559   -6.3973    0.6800   -6.4195    0.6819   -6.4051    0.7176   -6.4114    0.7280 -147.2722  -65.0193
  9.770   -6.3551    0.6295   -6.5191    0.8323   -6.3689    0.6672   -6.3909    0.6668   -6.3756    0.7021   -6.3819    0.7125 -138.8224  -65.0703
  9.780   -6.3272    0.6177   -6.4874    0.8102   -6.3408    0.6552   -6.3627    0.6526   -6.3465    0.6876   -6.3528    0.6979 -130.9523  -65.1184
  9.790   -6.2998    0.6065   -6.4561    0.7895   -6.3131    0.6438   -6.3348    0.6392   -6.3179    0.6738   -6.3242    0.6842 -123.6232  -65.1639
  9.800   -6.2727    0.5959   -6.4251    0.7701   -6.2859    0.6330   -6.3072    0.6265   -6.2896    0.6609   -6.2959    0.6712 -116.7977  -65.2068
  9.810   -6.2460    0.5859   -6.3946    0.7519   -6.2590    0.6227   -6.2800    0.6145   -6.2617    0.6486   -6.2681    0.6590 -110.4391  -65.2474
  9.820   -6.2196    0.5763   -6.3645    0.7349   -6.2325    0.6129   -6.2532    0.6031   -6.2343    0.6371   -6.2406    0.6474 -104.5127  -65.2858
  9.830   -6.1936    0.5672   -6.3349    0.7188   -6.2063    0.6036   -6.2267    0.5923   -6.2072    0.6261   -6.2135    0.6364  -98.9852  -65.3222
  9.840   -6.1680    0.5585   -6.3056    0.7037   -6.1806    0.5948   -6.2006    0.5821   -6.1805    0.6157   -6.1869    0.6260  -93.8253  -65.3566
  9.850   -6.1427    0.5502   -6.2768    0.6894   -6.1551    0.5864   -6.1748    0.5724   -6.1542    0.6058   -6.1606    0.6161  -89.0037  -65.3893
  9.860   -6.1178    0.5423   -6.2484    0.6759   -6.1300    0.5783   -6.1493    0.5632   -6.1283    0.5964   -6.1346    0.6067  -84.4932  -65.4204
  9.870   -6.0931    0.5348   -6.2204    0.6632   -6.1053    0.5706   -6.1242    0.5543   -6.1027    0.5875   -6.1090    0.5977  -80.2684  -65.4499
  9.880   -6.0688    0.5276   -6.1928    0.6511   -6.0809    0.5632   -6.0993    0.5459   -6.0775    0.5789   -6.0838    0.5891  -76.3063  -65.4779
  9.890   -6.0448    0.5206   -6.1657    0.6397   -6.0567    0.5562   -6.0748    0.5379   -6.0526    0.5708   -6.0589    0.5810  -72.5856  -65.5046
  9.900   -6.0211    0.5140   -6.1389    0.6289   -6.0329    0.5494   -6.0506    0.5303   -6.0280    0.5630   -6.0343    0.5732  -69.0870  -65.5300
  9.910   -5.9977    0.5076   -6.1125    0.6186   -6.0094    0.5429   -6.0267    0.5229   -6.0038    0.5556   -6.0101    0.5657  -65.7930  -65.5542
  9.920   -5.9745    0.5015   -6.0865    0.6088   -5.9862    0.5366   -6.0031    0.5159   -5.9799    0.5485   -5.9862    0.5586  -62.6878  -65.5772
  9.930   -5.9517    0.4956   -6.0609    0.5995   -5.9632    0.5306   -5.9798    0.5092   -5.9563    0.5417   -5.9626    0.5518  -59.7572  -65.5992
  9.940   -5.9290    0.4900   -6.0356    0.5906   -5.9405    0.5248   -5.9567    0.5027   -5.9330    0.5352   -5.9392    0.5452  -56.9884  -65.6201
  9.950   -5.9067    0.4845   -6.0107    0.5821   -5.9181    0.5193   -5.9339    0.4965   -5.9099    0.5289   -5.9162    0.5389  -54.3699  -65.6401
  9.960   -5.8846    0.4793   -5.9861    0.5740   -5.8959    0.5139   -5.9114    0.4906   -5.8872    0.5229   -5.8934    0.5328  -51.8917  -65.6592
  9.970   -5.8628    0.4742   -5.9619    0.5663   -5.8740    0.5087   -5.8891    0.4848   -5.8647    0.5171   -5.8710    0.5270  -49.5445  -65.6774
  9.980   -5.8411    0.4693   -5.9379    0.5589   -5.8523    0.5037   -5.8671    0.4793   -5.8425    0.5115   -5.8487    0.5214  -47.3203  -65.6940
  9.990   -5.8198    0.4646   -5.9143    0.5518   -5.8308    0.4989   -5.8453    0.4740   -5.8205    0.5061   -5.8268    0.5160  -45.2118  -65.7134
 10.000   -5.7986    0.4600   -5.8910    0.5449   -5.8096    0.4942   -5.8238    0.4689   -5.7988    0.5009   -5.8050    0.5108  -43.2127  -65.7194
