# Macroscopic dielectric function obtained with the BS equation.
#  RPA L0 with KS energies and KS wavefunctions     LOCAL FIELD EFFECTS INCLUDED
# RESONANT-ONLY calculation
# Coulomb term constructed with full W(G1,G2)
# Scissor operator energy =  0.8000 [eV]
# nstates included in the diagonalization = 96
# npweps  = 113
# npwwfn  = 259
# nbands  = 8
# loband  = 2
# nkibz   = 3
# nkbz    = 8
# Lorentzian broadening =  0.0000 [eV]
# List of q-points for the optical limit:
# q =  0.938821, 0.000000, 0.000000, [Reduced coords] 
# q =  0.000000, 0.938821, 0.000000, [Reduced coords] 
# q =  0.000000, 0.000000, 0.938821, [Reduced coords] 
# q =  0.000000, 0.813043, 0.813043, [Reduced coords] 
# q =  0.813043, 0.000000, 0.813043, [Reduced coords] 
# q =  0.813043, 0.813043, 0.000000, [Reduced coords] 
# omega [eV]    RE(eps(q=1)) IM(eps(q=1) RE(eps(q=2) ) ... DOS   IDOS
  0.000   57.5899    0.4339   57.4738    0.5786   57.4937    0.5738   57.5250    0.3953   57.6974    0.5275   57.6881    0.5347   -0.0000   -0.0000
  0.010   57.5905    0.4527   57.4742    0.5980   57.4940    0.5931   57.5256    0.4143   57.6978    0.5474   57.6885    0.5546   -0.0000   -0.0000
  0.020   57.5923    0.4716   57.4757    0.6174   57.4955    0.6125   57.5275    0.4334   57.6994    0.5673   57.6902    0.5746   -0.0000   -0.0000
  0.030   57.5953    0.4905   57.4785    0.6368   57.4982    0.6319   57.5306    0.4525   57.7023    0.5873   57.6931    0.5945   -0.0000   -0.0000
  0.040   57.5996    0.5094   57.4825    0.6562   57.5022    0.6514   57.5349    0.4716   57.7065    0.6073   57.6972    0.6145   -0.0000   -0.0000
  0.050   57.6052    0.5284   57.4877    0.6757   57.5074    0.6709   57.5405    0.4908   57.7119    0.6273   57.7026    0.6346   -0.0000   -0.0000
  0.060   57.6119    0.5474   57.4942    0.6953   57.5139    0.6904   57.5473    0.5100   57.7185    0.6474   57.7093    0.6547   -0.0000   -0.0000
  0.070   57.6199    0.5664   57.5019    0.7149   57.5216    0.7100   57.5554    0.5292   57.7264    0.6676   57.7171    0.6748   -0.0000   -0.0000
  0.080   57.6292    0.5855   57.5109    0.7345   57.5305    0.7296   57.5647    0.5485   57.7355    0.6877   57.7263    0.6950   -0.0000   -0.0000
  0.090   57.6397    0.6046   57.5211    0.7542   57.5407    0.7493   57.5753    0.5678   57.7459    0.7080   57.7367    0.7153   -0.0000   -0.0000
  0.100   57.6514    0.6238   57.5325    0.7740   57.5521    0.7690   57.5870    0.5872   57.7575    0.7282   57.7483    0.7356   -0.0000   -0.0000
  0.110   57.6644    0.6430   57.5452    0.7938   57.5647    0.7888   57.6001    0.6066   57.7704    0.7486   57.7612    0.7559   -0.0000   -0.0000
  0.120   57.6787    0.6623   57.5591    0.8136   57.5786    0.8087   57.6144    0.6261   57.7846    0.7690   57.7753    0.7763   -0.0000   -0.0000
  0.130   57.6942    0.6817   57.5742    0.8336   57.5937    0.8286   57.6299    0.6456   57.8000    0.7894   57.7907    0.7968   -0.0000   -0.0000
  0.140   57.7109    0.7011   57.5906    0.8536   57.6101    0.8486   57.6467    0.6652   57.8166    0.8100   57.8073    0.8174   -0.0000   -0.0000
  0.150   57.7289    0.7205   57.6082    0.8737   57.6277    0.8687   57.6647    0.6848   57.8345    0.8306   57.8253    0.8380   -0.0000   -0.0000
  0.160   57.7482    0.7401   57.6271    0.8938   57.6466    0.8888   57.6840    0.7045   57.8537    0.8512   57.8444    0.8587   -0.0000   -0.0000
  0.170   57.7687    0.7596   57.6472    0.9140   57.6667    0.9090   57.7046    0.7243   57.8742    0.8720   57.8649    0.8794   -0.0000   -0.0000
  0.180   57.7905    0.7793   57.6686    0.9343   57.6881    0.9293   57.7264    0.7441   57.8959    0.8928   57.8866    0.9002   -0.0000   -0.0000
  0.190   57.8135    0.7990   57.6913    0.9547   57.7107    0.9497   57.7495    0.7640   57.9189    0.9137   57.9096    0.9212   -0.0000   -0.0000
  0.200   57.8378    0.8188   57.7152    0.9752   57.7346    0.9701   57.7738    0.7840   57.9431    0.9347   57.9338    0.9422   -0.0000   -0.0000
  0.210   57.8634    0.8387   57.7404    0.9957   57.7598    0.9907   57.7994    0.8040   57.9686    0.9557   57.9594    0.9632   -0.0000   -0.0000
  0.220   57.8903    0.8587   57.7668    1.0164   57.7862    1.0113   57.8263    0.8242   57.9955    0.9769   57.9862    0.9844   -0.0000   -0.0000
  0.230   57.9184    0.8788   57.7945    1.0371   57.8139    1.0320   57.8545    0.8444   58.0236    0.9981   58.0143    1.0057   -0.0000   -0.0000
  0.240   57.9478    0.8989   57.8235    1.0579   57.8429    1.0529   57.8840    0.8647   58.0530    1.0195   58.0436    1.0270   -0.0000   -0.0000
  0.250   57.9785    0.9191   57.8538    1.0789   57.8731    1.0738   57.9147    0.8851   58.0836    1.0409   58.0743    1.0485   -0.0000   -0.0000
  0.260   58.0105    0.9394   57.8853    1.0999   57.9046    1.0948   57.9467    0.9055   58.1156    1.0624   58.1063    1.0700   -0.0000   -0.0000
  0.270   58.0438    0.9599   57.9181    1.1210   57.9375    1.1159   57.9800    0.9261   58.1489    1.0841   58.1396    1.0917   -0.0000   -0.0000
  0.280   58.0784    0.9804   57.9523    1.1423   57.9716    1.1371   58.0147    0.9468   58.1835    1.1058   58.1742    1.1135   -0.0000   -0.0000
  0.290   58.1144    1.0010   57.9877    1.1636   58.0070    1.1585   58.0506    0.9676   58.2194    1.1277   58.2100    1.1353   -0.0000   -0.0000
  0.300   58.1516    1.0217   58.0244    1.1851   58.0437    1.1799   58.0878    0.9884   58.2566    1.1497   58.2473    1.1573   -0.0000   -0.0000
  0.310   58.1901    1.0425   58.0624    1.2067   58.0817    1.2015   58.1263    1.0094   58.2951    1.1718   58.2858    1.1794   -0.0000   -0.0000
  0.320   58.2300    1.0635   58.1018    1.2284   58.1210    1.2232   58.1662    1.0305   58.3350    1.1940   58.3256    1.2017   -0.0000   -0.0000
  0.330   58.2711    1.0845   58.1424    1.2502   58.1617    1.2450   58.2074    1.0517   58.3762    1.2163   58.3668    1.2240   -0.0000   -0.0000
  0.340   58.3136    1.1057   58.1844    1.2721   58.2036    1.2670   58.2499    1.0730   58.4187    1.2388   58.4093    1.2465   -0.0000   -0.0000
  0.350   58.3575    1.1270   58.2277    1.2942   58.2469    1.2890   58.2938    1.0945   58.4626    1.2614   58.4532    1.2691   -0.0000   -0.0000
  0.360   58.4027    1.1484   58.2723    1.3164   58.2916    1.3112   58.3390    1.1160   58.5078    1.2841   58.4984    1.2919   -0.0000   -0.0000
  0.370   58.4492    1.1699   58.3183    1.3388   58.3375    1.3336   58.3855    1.1377   58.5544    1.3070   58.5450    1.3148   -0.0000   -0.0000
  0.380   58.4971    1.1916   58.3656    1.3613   58.3849    1.3561   58.4334    1.1596   58.6023    1.3300   58.5929    1.3378   -0.0000   -0.0000
  0.390   58.5464    1.2134   58.4143    1.3839   58.4335    1.3787   58.4826    1.1815   58.6516    1.3531   58.6422    1.3610   -0.0000   -0.0000
  0.400   58.5970    1.2354   58.4643    1.4067   58.4836    1.4015   58.5333    1.2036   58.7023    1.3764   58.6929    1.3843   -0.0000   -0.0000
  0.410   58.6490    1.2575   58.5157    1.4296   58.5350    1.4244   58.5853    1.2258   58.7544    1.3999   58.7449    1.4077   -0.0000   -0.0000
  0.420   58.7024    1.2797   58.5685    1.4527   58.5877    1.4475   58.6387    1.2482   58.8078    1.4235   58.7984    1.4314   -0.0000   -0.0000
  0.430   58.7572    1.3021   58.6227    1.4760   58.6419    1.4707   58.6934    1.2707   58.8627    1.4473   58.8532    1.4552   -0.0000   -0.0000
  0.440   58.8134    1.3246   58.6782    1.4994   58.6974    1.4941   58.7496    1.2934   58.9189    1.4712   58.9095    1.4791   -0.0000   -0.0000
  0.450   58.8710    1.3473   58.7352    1.5230   58.7544    1.5177   58.8072    1.3162   58.9766    1.4953   58.9671    1.5032   -0.0000   -0.0000
  0.460   58.9300    1.3701   58.7935    1.5467   58.8127    1.5414   58.8662    1.3392   59.0357    1.5196   59.0262    1.5275   -0.0000   -0.0000
  0.470   58.9904    1.3931   58.8533    1.5707   58.8725    1.5653   58.9266    1.3623   59.0962    1.5440   59.0867    1.5520   -0.0000   -0.0000
  0.480   59.0523    1.4163   58.9145    1.5948   58.9337    1.5894   58.9885    1.3856   59.1582    1.5687   59.1487    1.5766   -0.0000   -0.0000
  0.490   59.1156    1.4396   58.9771    1.6190   58.9963    1.6137   59.0518    1.4091   59.2216    1.5935   59.2121    1.6015   -0.0000   -0.0000
  0.500   59.1804    1.4632   59.0411    1.6435   59.0603    1.6381   59.1165    1.4328   59.2865    1.6185   59.2770    1.6265   -0.0000   -0.0000
  0.510   59.2466    1.4869   59.1066    1.6682   59.1258    1.6628   59.1827    1.4566   59.3528    1.6437   59.3433    1.6517   -0.0000   -0.0000
  0.520   59.3143    1.5107   59.1736    1.6930   59.1928    1.6876   59.2504    1.4806   59.4206    1.6691   59.4111    1.6771   -0.0000   -0.0000
  0.530   59.3835    1.5348   59.2420    1.7181   59.2612    1.7127   59.3195    1.5048   59.4899    1.6947   59.4804    1.7027   -0.0000   -0.0000
  0.540   59.4541    1.5591   59.3119    1.7433   59.3312    1.7379   59.3902    1.5292   59.5607    1.7205   59.5512    1.7285   -0.0000   -0.0000
  0.550   59.5263    1.5835   59.3833    1.7688   59.4026    1.7634   59.4623    1.5538   59.6330    1.7465   59.6235    1.7546   -0.0000   -0.0000
  0.560   59.6000    1.6082   59.4562    1.7945   59.4755    1.7890   59.5360    1.5786   59.7068    1.7727   59.6973    1.7808   -0.0000   -0.0000
  0.570   59.6752    1.6330   59.5307    1.8204   59.5499    1.8149   59.6111    1.6036   59.7822    1.7992   59.7726    1.8073   -0.0000   -0.0000
  0.580   59.7519    1.6581   59.6066    1.8465   59.6258    1.8410   59.6879    1.6288   59.8591    1.8258   59.8495    1.8339   -0.0000   -0.0000
  0.590   59.8302    1.6834   59.6841    1.8728   59.7033    1.8674   59.7661    1.6542   59.9375    1.8527   59.9279    1.8609   -0.0000   -0.0000
  0.600   59.9101    1.7089   59.7631    1.8994   59.7823    1.8939   59.8459    1.6798   60.0175    1.8799   60.0079    1.8880   -0.0000   -0.0000
  0.610   59.9915    1.7346   59.8436    1.9262   59.8629    1.9207   59.9273    1.7057   60.0991    1.9072   60.0895    1.9154   -0.0000   -0.0000
  0.620   60.0745    1.7606   59.9258    1.9533   59.9450    1.9478   60.0102    1.7318   60.1823    1.9349   60.1727    1.9430   -0.0000   -0.0000
  0.630   60.1591    1.7868   60.0095    1.9806   60.0287    1.9751   60.0948    1.7581   60.2671    1.9627   60.2574    1.9709   -0.0000   -0.0000
  0.640   60.2453    1.8132   60.0948    2.0081   60.1141    2.0026   60.1810    1.7846   60.3534    1.9909   60.3438    1.9991   -0.0000   -0.0000
  0.650   60.3331    1.8399   60.1817    2.0359   60.2010    2.0304   60.2687    1.8114   60.4415    2.0192   60.4318    2.0275   -0.0000   -0.0000
  0.660   60.4226    1.8668   60.2702    2.0640   60.2895    2.0585   60.3581    1.8385   60.5311    2.0479   60.5215    2.0562   -0.0000   -0.0000
  0.670   60.5137    1.8940   60.3604    2.0924   60.3797    2.0868   60.4492    1.8658   60.6224    2.0768   60.6128    2.0851   -0.0000   -0.0000
  0.680   60.6065    1.9214   60.4522    2.1210   60.4715    2.1154   60.5419    1.8933   60.7154    2.1060   60.7057    2.1143   -0.0000   -0.0000
  0.690   60.7009    1.9491   60.5457    2.1499   60.5650    2.1443   60.6363    1.9212   60.8101    2.1355   60.8004    2.1438   -0.0000   -0.0000
  0.700   60.7970    1.9771   60.6409    2.1791   60.6602    2.1734   60.7324    1.9493   60.9064    2.1653   60.8967    2.1736   -0.0000   -0.0000
  0.710   60.8949    2.0053   60.7377    2.2085   60.7571    2.2029   60.8302    1.9776   61.0045    2.1954   60.9948    2.2037   -0.0000   -0.0000
  0.720   60.9945    2.0338   60.8363    2.2383   60.8556    2.2326   60.9297    2.0063   61.1043    2.2258   61.0946    2.2341   -0.0000   -0.0000
  0.730   61.0958    2.0627   60.9366    2.2684   60.9559    2.2627   61.0310    2.0352   61.2059    2.2565   61.1961    2.2648   -0.0000   -0.0000
  0.740   61.1988    2.0918   61.0386    2.2988   61.0579    2.2931   61.1340    2.0645   61.3092    2.2875   61.2994    2.2959   -0.0000   -0.0000
  0.750   61.3037    2.1212   61.1423    2.3295   61.1617    2.3238   61.2388    2.0940   61.4143    2.3188   61.4045    2.3272   -0.0000   -0.0000
  0.760   61.4103    2.1509   61.2479    2.3605   61.2673    2.3548   61.3453    2.1239   61.5212    2.3505   61.5114    2.3589   -0.0000   -0.0000
  0.770   61.5187    2.1810   61.3552    2.3918   61.3746    2.3861   61.4537    2.1540   61.6299    2.3825   61.6201    2.3909   -0.0000   -0.0000
  0.780   61.6290    2.2113   61.4644    2.4235   61.4838    2.4178   61.5639    2.1845   61.7404    2.4148   61.7306    2.4232   -0.0000   -0.0000
  0.790   61.7411    2.2420   61.5753    2.4556   61.5948    2.4498   61.6759    2.2153   61.8528    2.4475   61.8430    2.4560   -0.0000   -0.0000
  0.800   61.8551    2.2730   61.6881    2.4880   61.7076    2.4822   61.7898    2.2465   61.9671    2.4806   61.9572    2.4890   -0.0000   -0.0000
  0.810   61.9709    2.3044   61.8028    2.5207   61.8223    2.5149   61.9056    2.2780   62.0832    2.5140   62.0734    2.5225   -0.0000   -0.0000
  0.820   62.0887    2.3361   61.9194    2.5538   61.9389    2.5480   62.0233    2.3098   62.2013    2.5478   62.1914    2.5563   -0.0000   -0.0000
  0.830   62.2083    2.3682   62.0378    2.5873   62.0573    2.5815   62.1429    2.3420   62.3212    2.5819   62.3114    2.5904   -0.0000   -0.0000
  0.840   62.3299    2.4006   62.1582    2.6212   62.1777    2.6153   62.2644    2.3746   62.4432    2.6165   62.4333    2.6250   -0.0000   -0.0000
  0.850   62.4535    2.4334   62.2805    2.6554   62.3001    2.6496   62.3879    2.4075   62.5670    2.6515   62.5571    2.6600   -0.0000   -0.0000
  0.860   62.5790    2.4666   62.4048    2.6901   62.4243    2.6842   62.5134    2.4408   62.6929    2.6868   62.6830    2.6954   -0.0000   -0.0000
  0.870   62.7066    2.5002   62.5310    2.7251   62.5506    2.7193   62.6408    2.4745   62.8208    2.7226   62.8109    2.7312   -0.0000   -0.0000
  0.880   62.8362    2.5342   62.6593    2.7606   62.6789    2.7547   62.7703    2.5086   62.9507    2.7588   62.9408    2.7674   -0.0000   -0.0000
  0.890   62.9678    2.5685   62.7896    2.7965   62.8092    2.7906   62.9019    2.5431   63.0827    2.7954   63.0727    2.8040   -0.0000   -0.0000
  0.900   63.1015    2.6033   62.9219    2.8329   62.9416    2.8269   63.0355    2.5781   63.2168    2.8325   63.2068    2.8411   -0.0000   -0.0000
  0.910   63.2373    2.6385   63.0563    2.8696   63.0760    2.8637   63.1712    2.6134   63.3529    2.8700   63.3429    2.8787   -0.0000   -0.0000
  0.920   63.3752    2.6742   63.1928    2.9069   63.2125    2.9009   63.3090    2.6492   63.4912    2.9080   63.4812    2.9167   -0.0000   -0.0000
  0.930   63.5152    2.7103   63.3314    2.9446   63.3512    2.9386   63.4490    2.6854   63.6316    2.9465   63.6216    2.9552   -0.0000   -0.0000
  0.940   63.6574    2.7468   63.4722    2.9827   63.4920    2.9767   63.5912    2.7221   63.7743    2.9855   63.7642    2.9941   -0.0000   -0.0000
  0.950   63.8019    2.7838   63.6152    3.0214   63.6350    3.0154   63.7355    2.7592   63.9191    3.0249   63.9090    3.0336   -0.0000   -0.0000
  0.960   63.9485    2.8213   63.7603    3.0605   63.7801    3.0545   63.8820    2.7968   64.0661    3.0648   64.0561    3.0735   -0.0000   -0.0000
  0.970   64.0974    2.8592   63.9077    3.1001   63.9275    3.0941   64.0308    2.8349   64.2154    3.1053   64.2054    3.1140   -0.0000   -0.0000
  0.980   64.2485    2.8976   64.0573    3.1403   64.0771    3.1342   64.1819    2.8735   64.3670    3.1463   64.3569    3.1550   -0.0000   -0.0000
  0.990   64.4020    2.9366   64.2092    3.1809   64.2291    3.1749   64.3353    2.9125   64.5209    3.1878   64.5108    3.1965   -0.0000   -0.0000
  1.000   64.5578    2.9760   64.3634    3.2221   64.3833    3.2161   64.4910    2.9521   64.6772    3.2298   64.6670    3.2386   -0.0000   -0.0000
  1.010   64.7160    3.0160   64.5199    3.2639   64.5399    3.2578   64.6491    2.9923   64.8358    3.2724   64.8256    3.2812   -0.0000   -0.0000
  1.020   64.8765    3.0565   64.6788    3.3062   64.6988    3.3001   64.8095    3.0329   64.9968    3.3156   64.9866    3.3244   -0.0000   -0.0000
  1.030   65.0395    3.0976   64.8401    3.3491   64.8601    3.3430   64.9724    3.0741   65.1602    3.3594   65.1501    3.3682   -0.0000   -0.0000
  1.040   65.2049    3.1392   65.0038    3.3925   65.0239    3.3864   65.1378    3.1159   65.3261    3.4038   65.3160    3.4126   -0.0000   -0.0000
  1.050   65.3728    3.1814   65.1700    3.4366   65.1901    3.4305   65.3056    3.1582   65.4945    3.4488   65.4843    3.4576   -0.0000   -0.0000
  1.060   65.5433    3.2242   65.3387    3.4813   65.3588    3.4751   65.4759    3.2012   65.6655    3.4944   65.6553    3.5032   -0.0000   -0.0000
  1.070   65.7163    3.2676   65.5098    3.5266   65.5300    3.5204   65.6488    3.2447   65.8390    3.5406   65.8287    3.5494   -0.0000   -0.0000
  1.080   65.8919    3.3115   65.6836    3.5725   65.7038    3.5663   65.8243    3.2888   66.0151    3.5875   66.0048    3.5963   -0.0000   -0.0000
  1.090   66.0701    3.3562   65.8599    3.6191   65.8801    3.6129   66.0024    3.3336   66.1938    3.6351   66.1835    3.6439   -0.0000   -0.0000
  1.100   66.2509    3.4014   66.0389    3.6663   66.0591    3.6601   66.1832    3.3790   66.3752    3.6833   66.3649    3.6922   -0.0000   -0.0000
  1.110   66.4345    3.4473   66.2205    3.7142   66.2408    3.7080   66.3666    3.4251   66.5593    3.7323   66.5490    3.7411   -0.0000   -0.0000
  1.120   66.6208    3.4939   66.4049    3.7629   66.4252    3.7566   66.5528    3.4718   66.7461    3.7819   66.7358    3.7908   -0.0000   -0.0000
  1.130   66.8098    3.5412   66.5919    3.8122   66.6123    3.8059   66.7418    3.5192   66.9357    3.8323   66.9254    3.8412   -0.0000   -0.0000
  1.140   67.0017    3.5891   66.7818    3.8623   66.8022    3.8560   66.9336    3.5674   67.1282    3.8834   67.1179    3.8923   -0.0000   -0.0000
  1.150   67.1964    3.6378   66.9744    3.9131   66.9948    3.9068   67.1282    3.6162   67.3235    3.9353   67.3131    3.9442   -0.0000   -0.0000
  1.160   67.3940    3.6872   67.1699    3.9646   67.1904    3.9583   67.3257    3.6658   67.5217    3.9880   67.5113    3.9969   -0.0000   -0.0000
  1.170   67.5946    3.7374   67.3683    4.0170   67.3888    4.0106   67.5262    3.7161   67.7228    4.0415   67.7125    4.0504   -0.0000   -0.0000
  1.180   67.7981    3.7883   67.5697    4.0701   67.5902    4.0638   67.7296    3.7672   67.9270    4.0958   67.9166    4.1047   -0.0000   -0.0000
  1.190   68.0047    3.8400   67.7740    4.1241   67.7946    4.1177   67.9361    3.8191   68.1341    4.1509   68.1238    4.1598   -0.0000   -0.0000
  1.200   68.2143    3.8925   67.9814    4.1789   68.0020    4.1725   68.1456    3.8718   68.3444    4.2069   68.3340    4.2158   -0.0000   -0.0000
  1.210   68.4270    3.9458   68.1918    4.2345   68.2125    4.2281   68.3582    3.9253   68.5578    4.2638   68.5474    4.2727   -0.0000   -0.0000
  1.220   68.6429    4.0000   68.4054    4.2910   68.4261    4.2846   68.5740    3.9797   68.7743    4.3215   68.7639    4.3305   -0.0000   -0.0000
  1.230   68.8620    4.0551   68.6221    4.3484   68.6429    4.3420   68.7930    4.0350   68.9941    4.3802   68.9837    4.3892   -0.0000   -0.0000
  1.240   69.0844    4.1110   68.8420    4.4068   68.8628    4.4003   69.0153    4.0911   69.2171    4.4399   69.2067    4.4488   -0.0000   -0.0000
  1.250   69.3100    4.1678   69.0652    4.4660   69.0861    4.4596   69.2409    4.1481   69.4435    4.5004   69.4330    4.5094   -0.0000   -0.0000
  1.260   69.5391    4.2256   69.2918    4.5262   69.3126    4.5198   69.4698    4.2061   69.6732    4.5620   69.6627    4.5710   -0.0000   -0.0000
  1.270   69.7715    4.2843   69.5216    4.5875   69.5426    4.5810   69.7022    4.2650   69.9064    4.6246   69.8959    4.6335   -0.0000   -0.0000
  1.280   70.0074    4.3440   69.7550    4.6497   69.7759    4.6432   69.9380    4.3249   70.1430    4.6882   70.1325    4.6972   -0.0000   -0.0000
  1.290   70.2469    4.4047   69.9917    4.7129   70.0128    4.7064   70.1773    4.3858   70.3832    4.7529   70.3727    4.7619   -0.0000   -0.0000
  1.300   70.4899    4.4664   70.2321    4.7772   70.2531    4.7707   70.4203    4.4477   70.6269    4.8187   70.6165    4.8276   -0.0000   -0.0000
  1.310   70.7366    4.5291   70.4760    4.8426   70.4971    4.8361   70.6669    4.5107   70.8744    4.8856   70.8639    4.8945   -0.0000   -0.0000
  1.320   70.9869    4.5929   70.7235    4.9091   70.7447    4.9026   70.9171    4.5748   71.1255    4.9536   71.1150    4.9625   -0.0000   -0.0000
  1.330   71.2411    4.6578   70.9748    4.9768   70.9960    4.9702   71.1712    4.6399   71.3804    5.0228   71.3699    5.0317   -0.0000   -0.0000
  1.340   71.4990    4.7239   71.2299    5.0456   71.2511    5.0390   71.4291    4.7062   71.6392    5.0932   71.6287    5.1021   -0.0000   -0.0000
  1.350   71.7609    4.7911   71.4887    5.1156   71.5101    5.1090   71.6908    4.7737   71.9018    5.1648   71.8913    5.1737   -0.0000   -0.0000
  1.360   72.0267    4.8595   71.7515    5.1868   71.7729    5.1802   71.9566    4.8423   72.1685    5.2377   72.1579    5.2466   -0.0000   -0.0000
  1.370   72.2965    4.9291   72.0183    5.2593   72.0397    5.2526   72.2263    4.9122   72.4391    5.3119   72.4286    5.3208   -0.0000   -0.0000
  1.380   72.5705    4.9999   72.2890    5.3330   72.3105    5.3264   72.5002    4.9833   72.7139    5.3874   72.7034    5.3963   -0.0000   -0.0000
  1.390   72.8486    5.0721   72.5639    5.4081   72.5855    5.4015   72.7782    5.0557   72.9929    5.4643   72.9823    5.4732   -0.0000   -0.0000
  1.400   73.1309    5.1455   72.8430    5.4846   72.8646    5.4779   73.0605    5.1295   73.2761    5.5426   73.2655    5.5515   -0.0000   -0.0000
  1.410   73.4176    5.2203   73.1263    5.5624   73.1479    5.5557   73.3470    5.2046   73.5636    5.6223   73.5531    5.6312   -0.0000   -0.0000
  1.420   73.7086    5.2965   73.4139    5.6417   73.4356    5.6350   73.6380    5.2810   73.8556    5.7035   73.8450    5.7123   -0.0000   -0.0000
  1.430   74.0041    5.3741   73.7060    5.7224   73.7277    5.7157   73.9335    5.3590   74.1520    5.7862   74.1415    5.7950   -0.0000   -0.0000
  1.440   74.3042    5.4531   74.0025    5.8047   74.0243    5.7979   74.2335    5.4383   74.4530    5.8704   74.4425    5.8793   -0.0000   -0.0000
  1.450   74.6089    5.5337   74.3036    5.8885   74.3255    5.8817   74.5381    5.5192   74.7587    5.9562   74.7481    5.9651   -0.0000   -0.0000
  1.460   74.9183    5.6158   74.6093    5.9738   74.6313    5.9671   74.8475    5.6017   75.0691    6.0437   75.0585    6.0525   -0.0000   -0.0000
  1.470   75.2326    5.6995   74.9198    6.0608   74.9418    6.0541   75.1617    5.6857   75.3843    6.1329   75.3737    6.1417   -0.0000   -0.0000
  1.480   75.5517    5.7848   75.2351    6.1495   75.2572    6.1427   75.4808    5.7713   75.7044    6.2238   75.6939    6.2326   -0.0000   -0.0000
  1.490   75.8759    5.8717   75.5553    6.2399   75.5774    6.2331   75.8049    5.8587   76.0295    6.3164   76.0190    6.3252   -0.0000   -0.0000
  1.500   76.2051    5.9604   75.8805    6.3321   75.9027    6.3252   76.1341    5.9477   76.3598    6.4109   76.3493    6.4197   -0.0000   -0.0000
  1.510   76.5395    6.0509   76.2109    6.4261   76.2331    6.4192   76.4684    6.0386   76.6952    6.5073   76.6847    6.5160   -0.0000   -0.0000
  1.520   76.8792    6.1431   76.5464    6.5219   76.5687    6.5150   76.8081    6.1312   77.0360    6.6056   77.0255    6.6143   -0.0000   -0.0000
  1.530   77.2243    6.2373   76.8872    6.6197   76.9096    6.6128   77.1532    6.2258   77.3821    6.7058   77.3716    6.7145   -0.0000   -0.0000
  1.540   77.5748    6.3333   77.2334    6.7194   77.2558    6.7125   77.5037    6.3222   77.7338    6.8081   77.7233    6.8168   -0.0000   -0.0000
  1.550   77.9310    6.4313   77.5852    6.8212   77.6076    6.8143   77.8599    6.4207   78.0911    6.9125   78.0806    6.9212   -0.0000   -0.0000
  1.560   78.2929    6.5314   77.9425    6.9250   77.9651    6.9181   78.2218    6.5212   78.4541    7.0191   78.4436    7.0277   -0.0000   -0.0000
  1.570   78.6607    6.6335   78.3056    7.0310   78.3282    7.0241   78.5895    6.6238   78.8229    7.1279   78.8125    7.1365   -0.0000   -0.0000
  1.580   79.0343    6.7378   78.6745    7.1392   78.6972    7.1323   78.9632    6.7286   79.1977    7.2390   79.1873    7.2475   -0.0000   -0.0000
  1.590   79.4141    6.8443   79.0494    7.2497   79.0722    7.2428   79.3430    6.8356   79.5787    7.3524   79.5682    7.3609   -0.0000   -0.0000
  1.600   79.8001    6.9530   79.4304    7.3625   79.4532    7.3556   79.7289    6.9449   79.9658    7.4682   79.9554    7.4767   -0.0000   -0.0000
  1.610   80.1923    7.0642   79.8176    7.4778   79.8405    7.4708   80.1212    7.0565   80.3593    7.5866   80.3489    7.5950   -0.0000   -0.0000
  1.620   80.5911    7.1777   80.2112    7.5955   80.2341    7.5885   80.5200    7.1706   80.7592    7.7075   80.7488    7.7159   -0.0000   -0.0000
  1.630   80.9964    7.2937   80.6112    7.7157   80.6342    7.7088   80.9254    7.2872   81.1657    7.8310   81.1554    7.8394   -0.0000   -0.0000
  1.640   81.4084    7.4123   81.0178    7.8387   81.0409    7.8316   81.3375    7.4064   81.5790    7.9573   81.5688    7.9656   -0.0000   -0.0000
  1.650   81.8274    7.5336   81.4312    7.9643   81.4544    7.9573   81.7565    7.5283   81.9992    8.0864   81.9890    8.0947   -0.0000   -0.0000
  1.660   82.2534    7.6576   81.8515    8.0927   81.8747    8.0857   82.1825    7.6529   82.4265    8.2184   82.4163    8.2266   -0.0000   -0.0000
  1.670   82.6865    7.7844   82.2788    8.2240   82.3021    8.2170   82.6157    7.7803   82.8609    8.3534   82.8507    8.3616   -0.0000   -0.0000
  1.680   83.1270    7.9140   82.7133    8.3583   82.7367    8.3512   83.0563    7.9107   83.3027    8.4915   83.2926    8.4996   -0.0000   -0.0000
  1.690   83.5750    8.0467   83.1552    8.4956   83.1787    8.4886   83.5044    8.0441   83.7520    8.6327   83.7419    8.6408   -0.0000   -0.0000
  1.700   84.0306    8.1825   83.6046    8.6361   83.6282    8.6291   83.9601    8.1806   84.2090    8.7773   84.1990    8.7853   -0.0000   -0.0000
  1.710   84.4941    8.3215   84.0617    8.7799   84.0854    8.7729   84.4238    8.3203   84.6739    8.9252   84.6639    8.9331   -0.0000   -0.0000
  1.720   84.9657    8.4638   84.5267    8.9271   84.5504    8.9200   84.8954    8.4633   85.1468    9.0766   85.1368    9.0845   -0.0000   -0.0000
  1.730   85.4454    8.6094   84.9997    9.0777   85.0235    9.0706   85.3753    8.6098   85.6279    9.2317   85.6180    9.2395   -0.0000   -0.0000
  1.740   85.9335    8.7586   85.4810    9.2319   85.5048    9.2249   85.8635    8.7598   86.1174    9.3904   86.1075    9.3982   -0.0000   -0.0000
  1.750   86.4302    8.9114   85.9706    9.3899   85.9945    9.3828   86.3604    8.9135   86.6155    9.5531   86.6057    9.5608   -0.0000   -0.0000
  1.760   86.9357    9.0680   86.4689    9.5517   86.4929    9.5446   86.8661    9.0710   87.1224    9.7197   87.1127    9.7273   -0.0000   -0.0000
  1.770   87.4502    9.2284   86.9760    9.7174   87.0000    9.7103   87.3808    9.2324   87.6384    9.8904   87.6287    9.8980   -0.0000   -0.0000
  1.780   87.9739    9.3929   87.4921    9.8873   87.5162    9.8801   87.9047    9.3978   88.1635   10.0654   88.1539   10.0729   -0.0000   -0.0000
  1.790   88.5070    9.5615   88.0174   10.0613   88.0416   10.0542   88.4381    9.5674   88.6981   10.2448   88.6886   10.2522   -0.0000   -0.0000
  1.800   89.0498    9.7344   88.5522   10.2398   88.5765   10.2327   88.9811    9.7414   89.2424   10.4288   89.2330   10.4361   -0.0000   -0.0000
  1.810   89.6024    9.9118   89.0967   10.4228   89.1211   10.4157   89.5340    9.9198   89.7966   10.6175   89.7872   10.6247   -0.0000   -0.0000
  1.820   90.1653   10.0937   89.6511   10.6105   89.6755   10.6034   90.0972   10.1029   90.3609   10.8111   90.3517   10.8182   -0.0000   -0.0000
  1.830   90.7385   10.2805   90.2156   10.8031   90.2402   10.7959   90.6707   10.2908   90.9357   11.0097   90.9265   11.0167   -0.0000   -0.0000
  1.840   91.3223   10.4721   90.7906   11.0007   90.8153   10.9935   91.2549   10.4837   91.5211   11.2136   91.5120   11.2205   -0.0000   -0.0000
  1.850   91.9171   10.6689   91.3763   11.2035   91.4010   11.1963   91.8500   10.6817   92.1174   11.4229   92.1085   11.4296   -0.0000   -0.0000
  1.860   92.5231   10.8710   91.9729   11.4117   91.9977   11.4046   92.4564   10.8851   92.7249   11.6378   92.7161   11.6445   -0.0000   -0.0000
  1.870   93.1406   11.0785   92.5808   11.6255   92.6057   11.6184   93.0742   11.0941   93.3440   11.8585   93.3353   11.8651   -0.0000   -0.0000
  1.880   93.7698   11.2918   93.2002   11.8451   93.2251   11.8380   93.7039   11.3088   93.9748   12.0854   93.9662   12.0918   -0.0000   -0.0000
  1.890   94.4112   11.5110   93.8314   12.0707   93.8564   12.0636   94.3457   11.5295   94.6177   12.3185   94.6093   12.3248   -0.0000   -0.0000
  1.900   95.0649   11.7363   94.4747   12.3026   94.4998   12.2955   94.9999   11.7563   95.2731   12.5581   95.2647   12.5642   -0.0000   -0.0000
  1.910   95.7314   11.9680   95.1304   12.5410   95.1556   12.5338   95.6669   11.9897   95.9411   12.8044   95.9330   12.8105   -0.0000   -0.0000
  1.920   96.4110   12.2064   95.7989   12.7860   95.8242   12.7789   96.3471   12.2297   96.6223   13.0578   96.6143   13.0637   -0.0000   -0.0000
  1.930   97.1040   12.4516   96.4806   13.0381   96.5059   13.0310   97.0406   12.4766   97.3169   13.3185   97.3090   13.3243   -0.0000   -0.0000
  1.940   97.8108   12.7039   97.1757   13.2975   97.2011   13.2904   97.7480   12.7308   98.0253   13.5868   98.0176   13.5924   -0.0000   -0.0000
  1.950   98.5318   12.9637   97.8846   13.5643   97.9101   13.5572   98.4696   12.9925   98.7478   13.8630   98.7403   13.8684   -0.0000   -0.0000
  1.960   99.2673   13.2312   98.6077   13.8391   98.6333   13.8320   99.2058   13.2620   99.4849   14.1473   99.4776   14.1526   -0.0001   -0.0000
  1.970  100.0178   13.5068   99.3455   14.1219   99.3711   14.1149   99.9571   13.5397  100.2370   14.4402  100.2299   14.4454   -0.0001   -0.0000
  1.980  100.7838   13.7907  100.0982   14.4133  100.1240   14.4063  100.7237   13.8258  101.0044   14.7420  100.9976   14.7470   -0.0001   -0.0000
  1.990  101.5655   14.0834  100.8664   14.7135  100.8922   14.7065  101.5063   14.1207  101.7877   15.0530  101.7811   15.0578   -0.0001   -0.0000
  2.000  102.3636   14.3851  101.6505   15.0229  101.6764   15.0159  102.3051   14.4248  102.5873   15.3737  102.5809   15.3783   -0.0001   -0.0000
  2.010  103.1784   14.6963  102.4509   15.3419  102.4768   15.3349  103.1208   14.7385  103.4035   15.7044  103.3974   15.7087   -0.0001   -0.0000
  2.020  104.0104   15.0173  103.2680   15.6709  103.2941   15.6639  103.9538   15.0622  104.2370   16.0455  104.2312   16.0497   -0.0002   -0.0000
  2.030  104.8602   15.3487  104.1025   16.0103  104.1286   16.0033  104.8045   15.3963  105.0882   16.3976  105.0827   16.4015   -0.0002   -0.0000
  2.040  105.7283   15.6908  104.9547   16.3605  104.9809   16.3536  105.6736   15.7412  105.9577   16.7610  105.9524   16.7648   -0.0002   -0.0000
  2.050  106.6153   16.0441  105.8253   16.7221  105.8515   16.7152  106.5616   16.0975  106.8459   17.1364  106.8410   17.1399   -0.0003   -0.0000
  2.060  107.5216   16.4091  106.7147   17.0955  106.7410   17.0886  107.4690   16.4656  107.7535   17.5241  107.7489   17.5274   -0.0003   -0.0000
  2.070  108.4479   16.7863  107.6235   17.4813  107.6499   17.4744  108.3965   16.8461  108.6810   17.9248  108.6767   17.9278   -0.0004   -0.0000
  2.080  109.3948   17.1763  108.5524   17.8799  108.5788   17.8730  109.3446   17.2396  109.6290   18.3391  109.6251   18.3418   -0.0004   -0.0000
  2.090  110.3629   17.5797  109.5019   18.2921  109.5284   18.2852  110.3140   17.6466  110.5982   18.7675  110.5947   18.7700   -0.0005   -0.0000
  2.100  111.3530   17.9970  110.4726   18.7183  110.4991   18.7115  111.3054   18.0677  111.5892   19.2107  111.5861   19.2130   -0.0006   -0.0000
  2.110  112.3656   18.4291  111.4653   19.1593  111.4919   19.1525  112.3194   18.5037  112.6027   19.6695  112.6000   19.6714   -0.0007   -0.0000
  2.120  113.4016   18.8764  112.4805   19.6158  112.5072   19.6090  113.3568   18.9553  113.6393   20.1445  113.6372   20.1462   -0.0008   -0.0000
  2.130  114.4615   19.3398  113.5191   20.0884  113.5458   20.0817  114.4183   19.4231  114.6999   20.6366  114.6983   20.6379   -0.0009   -0.0000
  2.140  115.5463   19.8201  114.5817   20.5781  114.6085   20.5713  115.5047   19.9080  115.7852   21.1465  115.7841   21.1475   -0.0010   -0.0000
  2.150  116.6568   20.3181  115.6692   21.0854  115.6960   21.0787  116.6168   20.4108  116.8960   21.6752  116.8954   21.6758   -0.0012   -0.0000
  2.160  117.7937   20.8346  116.7823   21.6115  116.8091   21.6048  117.7555   20.9324  118.0330   22.2235  118.0330   22.2238   -0.0014   -0.0000
  2.170  118.9579   21.3706  117.9218   22.1571  117.9487   22.1505  118.9215   21.4738  119.1972   22.7924  119.1978   22.7924   -0.0016   -0.0000
  2.180  120.1504   21.9271  119.0887   22.7233  119.1156   22.7167  120.1159   22.0360  120.3895   23.3831  120.3907   23.3827   -0.0019   -0.0000
  2.190  121.3721   22.5051  120.2839   23.3110  120.3107   23.3045  121.3396   22.6199  121.6107   23.9965  121.6126   23.9957   -0.0022   -0.0000
  2.200  122.6240   23.1058  121.5081   23.9215  121.5350   23.9150  122.5935   23.2269  122.8618   24.6339  122.8645   24.6328   -0.0026   -0.0000
  2.210  123.9071   23.7303  122.7626   24.5559  122.7894   24.5494  123.8788   23.8580  124.1438   25.2966  124.1473   25.2950   -0.0030   -0.0000
  2.220  125.2224   24.3799  124.0482   25.2155  124.0750   25.2090  125.1964   24.5147  125.4579   25.9858  125.4621   25.9839   -0.0034   -0.0000
  2.230  126.5712   25.0560  125.3660   25.9015  125.3928   25.8951  126.5474   25.1982  126.8049   26.7031  126.8101   26.7007   -0.0040   -0.0000
  2.240  127.9545   25.7600  126.7171   26.6155  126.7439   26.6091  127.9332   25.9100  128.1861   27.4499  128.1922   27.4471   -0.0046   -0.0000
  2.250  129.3736   26.4935  128.1027   27.3589  128.1294   27.3526  129.3547   26.6517  129.6027   28.2280  129.6097   28.2247   -0.0052   -0.0000
  2.260  130.8297   27.2581  129.5239   28.1334  129.5506   28.1271  130.8134   27.4251  131.0558   29.0389  131.0639   29.0352   -0.0060   -0.0000
  2.270  132.3241   28.0556  130.9820   28.9408  131.0087   28.9345  132.3105   28.2318  132.5467   29.8846  132.5559   29.8804   -0.0070   -0.0000
  2.280  133.8582   28.8879  132.4783   29.7828  132.5049   29.7766  133.8474   29.0739  134.0767   30.7671  134.0870   30.7625   -0.0080   -0.0000
  2.290  135.4334   29.7569  134.0140   30.6616  134.0405   30.6554  135.4254   29.9533  135.6471   31.6886  135.6587   31.6834   -0.0092   -0.0000
  2.300  137.0511   30.6650  135.5907   31.5791  135.6171   31.5730  137.0462   30.8724  137.2594   32.6513  137.2724   32.6456   -0.0106   -0.0000
  2.310  138.7130   31.6144  137.2097   32.5378  137.2360   32.5317  138.7111   31.8335  138.9151   33.6576  138.9294   33.6514   -0.0121   -0.0000
  2.320  140.4205   32.6076  138.8724   33.5401  138.8986   33.5340  140.4218   32.8391  140.6155   34.7103  140.6313   34.7036   -0.0140   -0.0000
  2.330  142.1754   33.6474  140.5806   34.5887  140.6066   34.5826  142.1799   33.8920  142.3623   35.8122  142.3798   35.8049   -0.0161   -0.0000
  2.340  143.9794   34.7366  142.3357   35.6863  142.3615   35.6803  143.9871   34.9952  144.1572   36.9663  144.1763   36.9585   -0.0185   -0.0001
  2.350  145.8341   35.8784  144.1394   36.8361  144.1650   36.8301  145.8452   36.1518  146.0016   38.1759  146.0225   38.1676   -0.0214   -0.0001
  2.360  147.7416   37.0761  145.9934   38.0414  146.0189   38.0353  147.7561   37.3654  147.8974   39.4446  147.9203   39.4357   -0.0248   -0.0001
  2.370  149.7036   38.3334  147.8995   39.3056  147.9247   39.2996  149.7215   38.6395  149.8463   40.7762  149.8713   40.7667   -0.0289   -0.0001
  2.380  151.7221   39.6542  149.8596   40.6328  149.8845   40.6267  151.7435   39.9783  151.8502   42.1749  151.8773   42.1648   -0.0338   -0.0001
  2.390  153.7991   41.0428  151.8753   42.0269  151.9000   42.0208  153.8240   41.3861  153.9107   43.6450  153.9402   43.6344   -0.0398   -0.0001
  2.400  155.9367   42.5038  153.9488   43.4925  153.9731   43.4864  155.9651   42.8675  156.0299   45.1914  156.0618   45.1803   -0.0472   -0.0001
  2.410  158.1371   44.0421  156.0819   45.0345  156.1058   45.0284  158.1689   44.4276  158.2095   46.8194  158.2442   46.8077   -0.0565   -0.0001
  2.420  160.4023   45.6632  158.2766   46.6581  158.3001   46.6519  160.4375   46.0721  160.4516   48.5347  160.4891   48.5225   -0.0684   -0.0002
  2.430  162.7347   47.3730  160.5348   48.3689  160.5579   48.3626  162.7730   47.8068  162.7580   50.3433  162.7986   50.3305   -0.0837   -0.0002
  2.440  165.1363   49.1778  162.8587   50.1733  162.8814   50.1669  165.1777   49.6383  165.1306   52.2519  165.1745   52.2387   -0.1036   -0.0002
  2.450  167.6094   51.0845  165.2503   52.0779  165.2724   52.0713  167.6537   51.5737  167.5714   54.2678  167.6187   54.2542   -0.1297   -0.0003
  2.460  170.1564   53.1008  167.7115   54.0900  167.7330   54.0833  170.2032   53.6207  170.0820   56.3988  170.1331   56.3849   -0.1642   -0.0003
  2.470  172.7792   55.2349  170.2443   56.2175  170.2652   56.2106  172.8283   55.7876  172.6643   58.6536  172.7195   58.6394   -0.2098   -0.0004
  2.480  175.4802   57.4956  172.8505   58.4692  172.8708   58.4620  175.5310   58.0838  175.3198   61.0415  175.3794   61.0271   -0.2705   -0.0005
  2.490  178.2613   59.8929  175.5321   60.8545  175.5515   60.8470  178.3132   60.5190  178.0501   63.5727  178.1143   63.5581   -0.3510   -0.0007
  2.500  181.1245   62.4375  178.2905   63.3836  178.3092   63.3758  181.1768   63.1044  180.8564   66.2582  180.9256   66.2436   -0.4580   -0.0008
  2.510  184.0714   65.1410  181.1273   66.0679  181.1451   66.0596  184.1233   65.8518  183.7396   69.1102  183.8142   69.0958   -0.5996   -0.0010
  2.520  187.1035   68.0163  184.0436   68.9196  184.0604   68.9108  187.1539   68.7743  186.7003   72.1420  186.7807   72.1279   -0.7864   -0.0013
  2.530  190.2220   71.0774  187.0402   71.9521  187.0560   71.9427  190.2697   71.8863  189.7388   75.3680  189.8254   75.3544   -1.0317   -0.0017
  2.540  193.4275   74.3398  190.1177   75.1803  190.1324   75.1702  193.4710   75.2035  192.8546   78.8041  192.9479   78.7912   -1.3521   -0.0022
  2.550  196.7203   77.8202  193.2758   78.6201  193.2893   78.6092  196.7576   78.7430  196.0466   82.4676  196.1472   82.4557   -1.7681   -0.0029
  2.560  200.0998   81.5371  196.5138   82.2892  196.5260   82.2773  200.1288   82.5237  199.3129   86.3773  199.4212   86.3668   -2.3050   -0.0037
  2.570  203.5646   85.5110  199.8300   86.2070  199.8408   86.1940  203.5827   86.5663  202.6504   90.5541  202.7671   90.5454   -2.9928   -0.0048
  2.580  207.1122   89.7640  203.2217   90.3946  203.2311   90.3803  207.1163   90.8935  206.0549   95.0204  206.1806   95.0140   -3.8679   -0.0062
  2.590  210.7388   94.3206  206.6850   94.8752  206.6928   94.8593  210.7252   95.5301  209.5204   99.8011  209.6558   99.7975   -4.9726   -0.0081
  2.600  214.4390   99.2076  210.2143   99.6741  210.2205   99.6565  214.4032  100.5034  213.0390  104.9231  213.1848  104.9230   -6.3564   -0.0104
  2.610  218.2053  104.4542  213.8022  104.8190  213.8066  104.7994  218.1421  105.8432  216.6006  110.4158  216.7576  110.4199   -8.0758   -0.0134
  2.620  222.0277  110.0927  217.4387  110.3404  217.4414  110.3183  221.9309  111.5820  220.1921  116.3111  220.3610  116.3204  -10.1946   -0.0171
  2.630  225.8932  116.1581  221.1113  116.2711  221.1121  116.2463  225.7555  117.7553  223.7970  122.6437  223.9787  122.6592  -12.7832   -0.0218
  2.640  229.7852  122.6884  224.8036  122.6471  224.8026  122.6192  229.5979  124.4018  227.3945  129.4509  227.5898  129.4739  -15.9184   -0.0276
  2.650  233.6823  129.7252  228.4954  129.5073  228.4925  129.4758  233.4352  131.5632  230.9590  136.7731  231.1689  136.8050  -19.6821   -0.0349
  2.660  237.5581  137.3132  232.1610  136.8937  232.1563  136.8580  237.2391  139.2846  234.4589  144.6530  234.6841  144.6956  -24.1590   -0.0438
  2.670  241.3792  145.5005  235.7690  144.8513  235.7625  144.8108  240.9741  147.6141  237.8554  153.1363  238.0967  153.1916  -29.4353   -0.0546
  2.680  245.1046  154.3383  239.2802  153.4281  239.2722  153.3820  244.5968  156.6031  241.1011  162.2706  241.3594  162.3409  -35.5949   -0.0677
  2.690  248.6837  163.8805  242.6470  162.6744  242.6377  162.6221  248.0537  166.3050  244.1388  172.1051  244.4147  172.1931  -42.7163   -0.0834
  2.700  252.0547  174.1834  245.8111  172.6429  245.8010  172.5835  251.2798  176.7754  246.8997  182.6896  247.1935  182.7984  -50.8685   -0.1020
  2.710  255.1425  185.3040  248.7023  183.3869  248.6918  183.3195  254.1964  188.0702  249.3010  194.0732  249.6129  194.2063  -60.1065   -0.1241
  2.720  257.8565  197.2992  251.2356  194.9597  251.2256  194.8832  256.7088  200.2443  251.2446  206.3020  251.5745  206.4635  -70.4669   -0.1500
  2.730  260.0880  210.2230  253.3097  207.4121  253.3011  207.3255  258.7040  213.3490  252.6146  219.4167  252.9617  219.6112  -81.9631   -0.1802
  2.740  261.7079  224.1236  254.8041  220.7896  254.7984  220.6919  260.0483  227.4288  253.2757  233.4492  253.6386  233.6817  -94.5818   -0.2149
  2.750  262.5640  239.0393  255.5774  235.1291  255.5761  235.0193  260.5847  242.5167  253.0710  248.4175  253.4475  248.6936 -108.2793   -0.2547
  2.760  262.4794  254.9929  255.4645  250.4535  255.4699  250.3307  260.1315  258.6288  251.8220  264.3201  252.2086  264.6457 -122.9805   -0.2999
  2.770  261.2505  271.9847  254.2763  266.7657  254.2907  266.6291  258.4814  275.7567  249.3277  281.1290  249.7199  281.5103 -138.5795   -0.3508
  2.780  258.6478  289.9838  251.7985  284.0402  251.8251  283.8898  255.4018  293.8591  245.3676  298.7812  245.7588  299.2245 -154.9433   -0.4078
  2.790  254.4177  308.9179  247.7941  302.2147  247.8364  302.0506  250.6379  312.8509  239.7050  317.1695  240.0872  317.6807 -171.9200   -0.4709
  2.800  248.2882  328.6614  242.0072  321.1783  242.0691  321.0016  243.9192  332.5921  232.0954  336.1326  232.4584  336.7167 -189.3515   -0.5405
  2.810  239.9778  349.0239  234.1717  340.7609  234.2574  340.5737  234.9693  352.8760  222.2977  355.4458  222.6290  356.1067 -207.0924   -0.6166
  2.820  229.2111  369.7375  224.0233  360.7217  224.1373  360.5273  223.5220  373.4188  210.0898  374.8138  210.3750  375.5529 -225.0359   -0.6993
  2.830  215.7388  390.4493  211.3186  380.7404  211.4648  380.5434  209.3425  393.8514  195.2899  393.8670  195.5127  394.6832 -243.1470   -0.7887
  2.840  199.3648  410.7168  195.8585  400.4123  196.0402  400.2191  192.2544  413.7186  177.7804  412.1647  177.9234  413.0530 -261.5020   -0.8848
  2.850  179.9778  430.0140  177.5172  419.2517  177.7364  419.0698  172.1704  432.4860  157.5340  429.2059  157.5796  430.1569 -280.3317   -0.9878
  2.860  157.5844  447.7484  156.2735  436.7049  156.5303  436.5432  149.1247  449.5591  134.6390  444.4508  134.5707  445.4503 -300.0623   -1.0981
  2.870  132.3404  463.2927  132.2410  452.1766  132.5330  452.0445  123.3009  464.3162  109.3189  457.3527  109.1228  458.3819 -321.3440   -1.2162
  2.880  104.5708  476.0306  105.6902  465.0701  106.0123  464.9770   95.0499  476.1547   81.9410  467.3996   81.6074  468.4354 -345.0514   -1.3430
  2.890   74.7747  485.4141   77.0571  474.8384   77.4015  474.7926   64.8908  484.5464   53.0115  474.1602   52.5360  475.1769 -372.2377   -1.4798
  2.900   43.6057  491.0248   46.9316  481.0415   47.2878  481.0491   33.4897  489.0953   23.1514  477.3304   22.5360  478.3010 -404.0244   -1.6282
  2.910   11.8281  492.6282   16.0227  483.3998   16.3786  483.4644    1.6155  489.5886   -6.9442  476.7706   -7.6908  477.6688 -441.4135   -1.7905
  2.920  -19.7505  490.2099  -14.8980  481.8340  -14.5558  481.9558  -29.9248  486.0283  -36.5610  472.5273  -37.4243  473.3297 -485.0293   -1.9687
  2.930  -50.3591  483.9839  -45.0686  476.4817  -44.7532  476.6572  -60.3620  478.6362  -65.0285  464.8338  -65.9889  465.5212 -534.8158   -2.1653
  2.940  -79.3458  474.3663  -73.8134  467.6830  -73.5370  467.9055  -89.0393  467.8287  -91.7799  454.0865  -92.8150  454.6449 -589.7480   -2.3820
  2.950 -106.2448  461.9158 -100.6115  455.9367 -100.3843  456.1962 -115.4734  454.1621 -116.4027  440.7991 -117.4886  441.2202 -647.6363   -2.6200
  2.960 -130.8171  447.2462 -125.1436  441.8271 -124.9735  442.1112 -139.3893  438.2549 -138.6685  425.5382 -139.7814  425.8182 -705.1070   -2.8791
  2.970 -153.0469  430.9211 -147.3056  425.9329 -147.1968  426.2270 -160.7196  420.6991 -158.5356  408.8465 -159.6525  408.9858 -757.8247   -3.1576
  2.980 -173.0826  413.3533 -167.1735  408.7315 -167.1262  409.0196 -179.5592  401.9751 -176.1136  391.1669 -177.2125  391.1690 -800.9696   -3.4520
  2.990 -191.1171  394.7457 -184.9160  390.5288 -184.9250  390.7948 -196.0756  382.4002 -191.5877  372.7887 -192.6469  372.6602 -829.9178   -3.7569
  3.000 -207.2389  375.1214 -200.6688  371.4548 -200.7229  371.6853 -210.3965  362.1409 -205.1143  353.8482 -206.1126  353.5997 -841.0043   -4.0660
  3.010 -221.3322  354.4639 -214.4288  351.5521 -214.5126  351.7393 -222.5306  341.3051 -216.7365  334.4030 -217.6543  334.0505 -832.2031   -4.3718
  3.020 -233.1150  332.9005 -226.0450  330.9219 -226.1423  331.0654 -232.3826  320.0670 -226.3767  314.5510 -227.1990  314.1159 -803.5638   -4.6671
  3.030 -242.3082  310.7971 -235.3253  309.8284 -235.4232  309.9344 -239.8600  298.7350 -233.9233  294.5140 -234.6422  294.0210 -757.2889   -4.9454
  3.040 -248.8139  288.6912 -242.1802  288.6834 -242.2717  288.7613 -244.9881  277.7117 -239.3448  274.6250 -239.9606  274.0986 -697.4254   -5.2017
  3.050 -252.7770  267.1315 -246.6990  267.9388 -246.7826  267.9976 -247.9500  257.3898 -242.7491  255.2423 -243.2683  254.7033 -629.2411   -5.4330
  3.060 -254.5262  246.5444 -249.1278  247.9745 -249.2057  248.0207 -249.0449  238.0658 -244.3644  236.6620 -244.7975  236.1260 -558.4292   -5.6382
  3.070 -254.4685  227.1854 -249.7966  229.0435 -249.8723  229.0802 -248.6163  219.9099 -244.4805  219.0754 -244.8390  218.5529 -490.3211   -5.8184
  3.080 -253.0036  209.1576 -249.0481  211.2716 -249.1253  211.2996 -246.9942  202.9813 -243.3928  202.5708 -243.6881  202.0686 -429.2665   -5.9761
  3.090 -250.4787  192.4555 -247.1937  194.6859 -247.2754  194.7041 -244.4643  187.2598 -241.3676  187.1569 -241.6098  186.6789 -378.2820   -6.1152
  3.100 -247.1736  177.0077 -244.4947  179.2478 -244.5828  179.2539 -241.2588  172.6763 -238.6279  172.7901 -238.8260  172.3380 -338.9936   -6.2397
  3.110 -243.3035  162.7077 -241.1588  164.8797 -241.2544  164.8706 -237.5586  159.1359 -235.3512  159.3953 -235.5131  158.9696 -311.8321   -6.3543
  3.120 -239.0276  149.4345 -237.3448  151.4840 -237.4480  151.4559 -233.4999  146.5316 -231.6739  146.8813 -231.8062  146.4817 -296.3954   -6.4633
  3.130 -234.4586  137.0638 -233.1686  138.9550 -233.2783  138.9038 -229.1811  134.7536 -227.6959  135.1505 -227.8045  134.7756 -291.8754   -6.5705
  3.140 -229.6710  125.4747 -228.7093  127.1863 -228.8236  127.1074 -224.6688  123.6937 -223.4859  124.1040 -223.5758  123.7519 -297.4624   -6.6798
  3.150 -224.7066  114.5537 -224.0145  116.0759 -224.1300  115.9644 -220.0022  113.2487 -219.0851  113.6457 -219.1603  113.3139 -312.6534   -6.7947
  3.160 -219.5789  104.1964 -219.1037  105.5293 -219.2152  105.3801 -215.1954  103.3216 -214.5094  103.6846 -214.5729  103.3700 -337.4202   -6.9187
  3.170 -214.2757   94.3104 -213.9704   95.4624 -214.0708   95.2704 -210.2389   93.8234 -209.7508   94.1367 -209.8045   93.8360 -372.2074   -7.0555
  3.180 -208.7589   84.8173 -208.5837   85.8048 -208.6632   85.5658 -205.0993   84.6759 -204.7764   84.9281 -204.8208   84.6379 -417.7496   -7.2090
  3.190 -202.9651   75.6574 -202.8886   76.5043 -202.9340   76.2156 -199.7173   75.8147 -199.5273   75.9992 -199.5615   75.7165 -474.7229   -7.3835
  3.200 -196.8038   66.7968 -196.8055   67.5335 -196.8005   67.1954 -194.0051   67.1966 -193.9153   67.3121 -193.9371   67.0349 -543.2836   -7.5831
  3.210 -190.1574   58.2393 -190.2319   58.9004 -190.1565   58.5187 -187.8443   58.8115 -187.8214   58.8636 -187.8275   58.5914 -622.6024   -7.8119
  3.220 -182.8860   50.0454 -183.0469   50.6646 -182.8792   50.2528 -181.0868   50.7019 -181.0981   50.7062 -181.0851   50.4410 -710.5568   -8.0731
  3.230 -174.8439   42.3577 -175.1266   42.9578 -174.8457   42.5406 -173.5682   42.9916 -173.5851   42.9773 -173.5507   42.7232 -803.7736   -8.3684
  3.240 -165.9189   35.4263 -166.3775   36.0051 -165.9696   35.6203 -165.1439   35.9174 -165.1501   35.9305 -165.0948   35.6934 -898.1637   -8.6985
  3.250 -156.1019   29.6147 -156.7947   30.1300 -156.2621   29.8266 -155.7606   29.8465 -155.7662   29.9465 -155.6942   29.7318 -989.9311   -9.0623
  3.260 -145.5763   25.3536 -146.5380   25.7184 -145.9081   25.5482 -145.5583   25.2396 -145.6146   25.4837 -145.5329   25.2937 *********   -9.4580
  3.270 -134.7803   23.0173 -135.9903   23.1186 -135.3183   23.1194 -134.9535   22.5257 -135.1539   22.9368 -135.0701   22.7691 *********   -9.8838
  3.280 -124.3672   22.7513 -125.7372   22.4917 -125.0954   22.6694 -124.6149   21.9070 -125.0672   22.4430 -124.9857   22.2903 *********  -10.3383
  3.290 -115.0353   24.3517 -116.4325   23.6918 -115.8873   24.0135 -115.2831   23.2098 -116.0598   23.7622 -115.9785   23.6155 *********  -10.8211
  3.300 -107.3068   27.2941 -108.6001   26.2658 -108.1885   26.6712 -107.5195   25.9067 -108.6205   26.3390 -108.5300   26.1922 *********  -11.3308
  3.310 -101.3868   30.8988 -102.4845   29.5838 -102.2059   30.0100 -101.5452   29.3017 -102.9011   29.4999 -102.7868   29.3558 *********  -11.8637
  3.320  -97.1572   34.5243  -98.0187   33.0202  -97.8449   33.4238  -97.2433   32.7471  -98.7476   32.6488  -98.5974   32.5232 *********  -12.4116
  3.330  -94.2636   37.7115  -94.8906   36.1061  -94.7865   36.4706  -94.2677   35.7883  -95.8101   35.3840  -95.6256   35.3024 *********  -12.9605
  3.340  -92.2557   40.2644  -92.6755   38.6222  -92.6162   38.9504  -92.1884   38.2243  -93.6763   37.5435  -93.4788   37.5280 *********  -13.4928
  3.350  -90.7614   42.2344  -91.0105   40.5935  -90.9857   40.8921  -90.6455   40.0792  -92.0130   39.1746  -91.8356   39.2286 *********  -13.9898
  3.360  -89.6004   43.7749  -89.7107   42.1536  -89.7172   42.4232  -89.4415   41.4776  -90.6503   40.4097  -90.5202   40.5158 *********  -14.4402
  3.370  -88.7372   44.9830  -88.7322   43.3904  -88.7639   43.6262  -88.5070   42.5126  -89.5406   41.3401  -89.4689   41.4717 *********  -14.8690
  3.380  -88.1612   45.8645  -88.0606   44.3059  -88.1036   44.5055  -87.8077   43.2109  -88.6655   41.9854  -88.6488   42.1190 *********  -15.3801
  3.390  -87.8230   46.3852  -87.6413   44.8530  -87.6824   45.0316  -87.2895   43.5649  -87.9820   42.3293  -88.0093   42.4490 *********  -16.0058
  3.400  -87.6349   46.5250  -87.3555   45.0196  -87.4125   45.1886  -86.8705   43.5800  -87.4134   42.3678  -87.4715   42.4656 *********  -16.5273
  3.410  -87.5040   46.2968  -87.1298   44.8543  -87.2048   44.9937  -86.4823   43.2893  -86.8949   42.1283  -86.9720   42.2026 -812.2723  -16.8258
  3.420  -87.3458   45.7373  -86.9040   44.3761  -86.9817   44.4824  -86.0655   42.7272  -86.3716   41.6378  -86.4589   41.6899 -496.8144  -17.0083
  3.430  -87.0941   44.9037  -86.6094   43.6284  -86.6807   43.7071  -85.5698   41.9430  -85.7938   40.9372  -85.8850   40.9703 -400.3964  -17.1555
  3.440  -86.7069   43.8621  -86.2005   42.6715  -86.2613   42.7290  -84.9639   40.9925  -85.1288   40.0757  -85.2197   40.0932 -354.9908  -17.2859
  3.450  -86.1647   42.6774  -85.6541   41.5665  -85.7031   41.6084  -84.2346   39.9295  -84.3602   39.1018  -84.4485   39.1072 -319.9080  -17.4035
  3.460  -85.4652   41.4074  -84.9647   40.3687  -85.0019   40.3992  -83.3818   38.8008  -83.4846   38.0589  -83.5691   38.0552 -289.5753  -17.5099
  3.470  -84.6180   40.0992  -84.1387   39.1240  -84.1649   39.1462  -82.4141   37.6444  -82.5072   36.9829  -82.5875   36.9726 -262.4772  -17.6064
  3.480  -83.6395   38.7892  -83.1894   37.8682  -83.2056   37.8847  -81.3453   36.4895  -81.4387   35.9021  -81.5146   35.8872 -238.0339  -17.6939
  3.490  -82.5491   37.5041  -82.1338   36.6282  -82.1410   36.6407  -80.1912   35.3572  -80.2920   34.8377  -80.3639   34.8196 -216.0975  -17.7733
  3.500  -81.3666   36.2622  -80.9895   35.4230  -80.9889   35.4326  -78.9677   34.2623  -79.0811   33.8045  -79.1493   33.7843 -196.6783  -17.8456
  3.510  -80.1105   35.0752  -79.7738   34.2651  -79.7663   34.2727  -77.6896   33.2141  -77.8191   32.8125  -77.8841   32.7912 -179.7985  -17.9116
  3.520  -78.7977   33.9503  -78.5023   33.1625  -78.4888   33.1687  -76.3704   32.2184  -76.5182   31.8683  -76.5804   31.8463 -165.4287  -17.9724
  3.530  -77.4427   32.8908  -77.1889   32.1195  -77.1700   32.1247  -75.0216   31.2778  -75.1891   30.9753  -75.2489   30.9532 -153.4712  -18.0288
  3.540  -76.0576   31.8979  -75.8453   31.1381  -75.8217   31.1424  -73.6527   30.3933  -73.8409   30.1351  -73.8985   30.1132 -143.7650  -18.0817
  3.550  -74.6529   30.9711  -74.4817   30.2183  -74.4537   30.2220  -72.2721   29.5645  -72.4813   29.3481  -72.5371   29.3266 -136.1013  -18.1317
  3.560  -73.2369   30.1087  -73.1062   29.3590  -73.0743   29.3623  -70.8863   28.7901  -71.1168   28.6134  -71.1711   28.5926 -130.2414  -18.1795
  3.570  -71.8165   29.3084  -71.7258   28.5586  -71.6902   28.5615  -69.5007   28.0682  -69.7527   27.9299  -69.8057   27.9097 -125.9350  -18.2258
  3.580  -70.3974   28.5677  -70.3460   27.8147  -70.3071   27.8173  -68.1198   27.3968  -68.3933   27.2958  -68.4452   27.2764 -122.9353  -18.2710
  3.590  -68.9840   27.8838  -68.9715   27.1249  -68.9294   27.1272  -66.7470   26.7734  -67.0422   26.7092  -67.0932   26.6907 -121.0105  -18.3155
  3.600  -67.5798   27.2539  -67.6059   26.4866  -67.5607   26.4886  -65.3851   26.1959  -65.7022   26.1682  -65.7524   26.1506 -119.9526  -18.3595
  3.610  -66.1878   26.6752  -66.2522   25.8970  -66.2039   25.8989  -64.0362   25.6619  -64.3756   25.6707  -64.4251   25.6540 -119.5815  -18.4035
  3.620  -64.8101   26.1450  -64.9125   25.3538  -64.8614   25.3555  -62.7020   25.1691  -63.0641   25.2148  -63.1131   25.1991 -119.7476  -18.4475
  3.630  -63.4483   25.6610  -63.5888   24.8543  -63.5348   24.8559  -61.3838   24.7155  -61.7691   24.7986  -61.8177   24.7838 -120.3312  -18.4917
  3.640  -62.1039   25.2207  -62.2824   24.3963  -62.2256   24.3978  -60.0824   24.2990  -60.4917   24.4202  -60.5399   24.4064 -121.2403  -18.5363
  3.650  -60.7777   24.8219  -60.9944   23.9775  -60.9348   23.9790  -58.7984   23.9178  -59.2327   24.0780  -59.2805   24.0651 -122.4082  -18.5813
  3.660  -59.4704   24.4627  -59.7254   23.5958  -59.6630   23.5973  -57.5321   23.5700  -57.9926   23.7704  -58.0402   23.7584 -123.7899  -18.6268
  3.670  -58.1825   24.1413  -58.4759   23.2493  -58.4108   23.2509  -56.2839   23.2542  -56.7717   23.4959  -56.8191   23.4848 -125.3588  -18.6728
  3.680  -56.9142   23.8559  -57.2463   22.9362  -57.1783   22.9379  -55.0535   22.9687  -55.5702   23.2531  -55.6175   23.2429 -127.1035  -18.7195
  3.690  -55.6655   23.6052  -56.0365   22.6548  -55.9658   22.6567  -53.8409   22.7122  -54.3883   23.0409  -54.4355   23.0315 -129.0250  -18.7669
  3.700  -54.4366   23.3877  -54.8467   22.4035  -54.7730   22.4057  -52.6458   22.4836  -53.2259   22.8581  -53.2730   22.8495 -131.1346  -18.8151
  3.710  -53.2273   23.2023  -53.6765   22.1811  -53.6000   22.1836  -51.4678   22.2817  -52.0829   22.7036  -52.1299   22.6959 -133.4515  -18.8642
  3.720  -52.0373   23.0480  -52.5257   21.9862  -52.4462   21.9891  -50.3064   22.1055  -50.9591   22.5768  -51.0060   22.5698 -136.0013  -18.9142
  3.730  -50.8665   22.9239  -51.3940   21.8177  -51.3115   21.8212  -49.1611   21.9543  -49.8542   22.4767  -49.9011   22.4706 -138.8153  -18.9652
  3.740  -49.7146   22.8293  -50.2809   21.6746  -50.1953   21.6788  -48.0313   21.8273  -48.7681   22.4029  -48.8149   22.3975 -141.9288  -19.0173
  3.750  -48.5813   22.7637  -49.1858   21.5562  -49.0972   21.5611  -46.9163   21.7240  -47.7004   22.3548  -47.7472   22.3501 -145.3808  -19.0708
  3.760  -47.4663   22.7266  -48.1083   21.4616  -48.0165   21.4673  -45.8154   21.6440  -46.6508   22.3320  -46.6975   22.3279 -149.2131  -19.1256
  3.770  -46.3694   22.7176  -47.0478   21.3902  -46.9527   21.3970  -44.7280   21.5868  -45.6190   22.3342  -45.6657   22.3308 -153.4696  -19.1820
  3.780  -45.2904   22.7367  -46.0036   21.3417  -45.9052   21.3496  -43.6532   21.5524  -44.6049   22.3613  -44.6515   22.3586 -158.1962  -19.2401
  3.790  -44.2290   22.7837  -44.9751   21.3157  -44.8733   21.3248  -42.5903   21.5407  -43.6081   22.4133  -43.6546   22.4111 -163.4399  -19.3002
  3.800  -43.1852   22.8588  -43.9616   21.3119  -43.8564   21.3224  -41.5386   21.5519  -42.6286   22.4901  -42.6749   22.4886 -169.2487  -19.3624
  3.810  -42.1589   22.9619  -42.9625   21.3304  -42.8538   21.3425  -40.4972   21.5861  -41.6661   22.5919  -41.7123   22.5910 -175.6706  -19.4269
  3.820  -41.1502   23.0934  -41.9772   21.3711  -41.8648   21.3850  -39.4655   21.6438  -40.7207   22.7190  -40.7667   22.7186 -182.7538  -19.4941
  3.830  -40.1592   23.2536  -41.0051   21.4344  -40.8889   21.4503  -38.4427   21.7255  -39.7924   22.8717  -39.8381   22.8718 -190.5461  -19.5641
  3.840  -39.1862   23.4428  -40.0454   21.5207  -39.9255   21.5387  -37.4280   21.8320  -38.8813   23.0503  -38.9267   23.0509 -199.0941  -19.6373
  3.850  -38.2315   23.6613  -39.0977   21.6304  -38.9739   21.6507  -36.4209   21.9640  -37.9877   23.2553  -38.0326   23.2564 -208.4436  -19.7139
  3.860  -37.2956   23.9097  -38.1615   21.7642  -38.0336   21.7872  -35.4208   22.1227  -37.1119   23.4873  -37.1562   23.4888 -218.6386  -19.7942
  3.870  -36.3791   24.1883  -37.2362   21.9231  -37.1043   21.9490  -34.4270   22.3093  -36.2542   23.7466  -36.2978   23.7487 -229.7212  -19.8787
  3.880  -35.4826   24.4974  -36.3216   22.1080  -36.1855   22.1371  -33.4391   22.5252  -35.4153   24.0340  -35.4581   24.0365 -241.7312  -19.9675
  3.890  -34.6068   24.8375  -35.4174   22.3203  -35.2769   22.3530  -32.4568   22.7721  -34.5957   24.3500  -34.6375   24.3529 -254.7056  -20.0611
  3.900  -33.7524   25.2088  -34.5234   22.5613  -34.3785   22.5980  -31.4798   23.0519  -33.7962   24.6952  -33.8367   24.6985 -268.6782  -20.1598
  3.910  -32.9202   25.6117  -33.6397   22.8328  -33.4903   22.8738  -30.5079   23.3666  -33.0174   25.0702  -33.0564   25.0741 -283.6789  -20.2641
  3.920  -32.1110   26.0464  -32.7665   23.1367  -32.6125   23.1825  -29.5413   23.7185  -32.2602   25.4758  -32.2975   25.4803 -299.7328  -20.3742
  3.930  -31.3251   26.5133  -31.9041   23.4751  -31.7454   23.5261  -28.5802   24.1104  -31.5254   25.9127  -31.5606   25.9179 -316.8590  -20.4907
  3.940  -30.5632   27.0130  -31.0533   23.8503  -30.8900   23.9072  -27.6252   24.5452  -30.8139   26.3819  -30.8467   26.3880 -335.0701  -20.6138
  3.950  -29.8257   27.5462  -30.2152   24.2650  -30.0471   24.3285  -26.6769   25.0260  -30.1267   26.8844  -30.1566   26.8918 -354.3697  -20.7440
  3.960  -29.1128   28.1140  -29.3913   24.7222  -29.2184   24.7929  -25.7366   25.5563  -29.4648   27.4218  -29.4914   27.4307 -374.7516  -20.8818
  3.970  -28.4248   28.7179  -28.5834   25.2249  -28.4059   25.3036  -24.8059   26.1402  -28.8295   27.9958  -28.8525   28.0067 -396.1973  -21.0274
  3.980  -27.7623   29.3604  -27.7941   25.7765  -27.6121   25.8641  -23.8868   26.7818  -28.2224   28.6086  -28.2414   28.6221 -418.6743  -21.1812
  3.990  -27.1260   30.0443  -27.0267   26.3805  -26.8405   26.4780  -22.9820   27.4857  -27.6458   29.2628  -27.6603   29.2797 -442.1335  -21.3437
  4.000  -26.5174   30.7735  -26.2852   27.0405  -26.0950   27.1489  -22.0950   28.2568  -27.1026   29.9617  -27.1122   29.9829 -466.5074  -21.5151
  4.010  -25.9390   31.5527  -25.5746   27.7603  -25.3809   27.8808  -21.2301   29.1005  -26.5967   30.7087  -26.6013   30.7353 -491.7079  -21.6958
  4.020  -25.3946   32.3872  -24.9009   28.5433  -24.7044   28.6771  -20.3926   30.0222  -26.1335   31.5076  -26.1330   31.5409 -517.6244  -21.8861
  4.030  -24.8897   33.2826  -24.2714   29.3929  -24.0731   29.5413  -19.5890   31.0278  -25.7200   32.3621  -25.7146   32.4034 -544.1220  -22.0860
  4.040  -24.4320   34.2450  -23.6947   30.3117  -23.4957   30.4762  -18.8275   32.1230  -25.3649   33.2752  -25.3550   33.3261 -571.0412  -22.2959
  4.050  -24.0315   35.2796  -23.1809   31.3016  -22.9827   31.4836  -18.1177   33.3138  -25.0791   34.2492  -25.0655   34.3114 -598.1967  -22.5157
  4.060  -23.7008   36.3911  -22.7416   32.3635  -22.5459   32.5642  -17.4712   34.6055  -24.8756   35.2847  -24.8594   35.3598 -625.3780  -22.7455
  4.070  -23.4551   37.5822  -22.3896   33.4964  -22.1988   33.7171  -16.9020   36.0030  -24.7692   36.3798  -24.7519   36.4694 -652.3504  -22.9853
  4.080  -23.3124   38.8531  -22.1394   34.6973  -21.9562   34.9390  -16.4265   37.5102  -24.7765   37.5298  -24.7602   37.6352 -678.8571  -23.2348
  4.090  -23.2929   40.2007  -22.0063   35.9606  -21.8338   36.2241  -16.0638   39.1290  -24.9151   38.7259  -24.9022   38.8483 -704.6214  -23.4937
  4.100  -23.4185   41.6175  -22.0064   37.2775  -21.8483   37.5630  -15.8358   40.8590  -25.2030   39.9547  -25.1964   40.0948 -729.3506  -23.7617
  4.110  -23.7123   43.0909  -22.1558   38.6357  -22.0160   38.9428  -15.7676   42.6966  -25.6570   41.1978  -25.6600   41.3556 -752.7401  -24.0384
  4.120  -24.1972   44.6022  -22.4697   40.0187  -22.3526   40.3461  -15.8867   44.6333  -26.2919   42.4311  -26.3079   42.6061 -774.4785  -24.3230
  4.130  -24.8943   46.1260  -22.9618   41.4059  -22.8717   41.7516  -16.2227   46.6550  -27.1182   43.6255  -27.1507   43.8161 -794.2531  -24.6149
  4.140  -25.8212   47.6302  -23.6426   42.7726  -23.5839   43.1332  -16.8066   48.7403  -28.1407   44.7469  -28.1928   44.9508 -811.7560  -24.9132
  4.150  -26.9898   49.0762  -24.5188   44.0903  -24.4954   44.4616  -17.6687   50.8593  -29.3564   45.7582  -29.4307   45.9721 -826.6907  -25.2170
  4.160  -28.4042   50.4200  -25.5917   45.3276  -25.6069   45.7041  -18.8366   52.9724  -30.7532   46.6208  -30.8518   46.8410 -838.7783  -25.5252
  4.170  -30.0585   51.6141  -26.8565   46.4510  -26.9124   46.8262  -20.3322   55.0297  -32.3093   47.2979  -32.4331   47.5200 -847.7648  -25.8368
  4.180  -31.9355   52.6100  -28.3014   47.4267  -28.3986   47.7934  -22.1682   56.9719  -33.9931   47.7569  -34.1421   47.9765 -853.4271  -26.1504
  4.190  -34.0058   53.3618  -29.9071   48.2217  -30.0447   48.5726  -24.3439   58.7316  -35.7650   47.9731  -35.9379   48.1858 -855.5801  -26.4648
  4.200  -36.2283   53.8291  -31.6467   48.8063  -31.8220   49.1340  -26.8420   60.2368  -37.5791   47.9313  -37.7738   48.1334 -854.0819  -26.7787
  4.210  -38.5518   53.9813  -33.4864   49.1558  -33.6950   49.4535  -29.6258   61.4163  -39.3872   47.6284  -39.6004   47.8168 -848.8397  -27.0906
  4.220  -40.9178   53.7998  -35.3866   49.2522  -35.6226   49.5147  -32.6387   62.2054  -41.1415   47.0727  -41.3700   47.2453 -839.8141  -27.3992
  4.230  -43.2641   53.2804  -37.3035   49.0867  -37.5597   49.3099  -35.8057   62.5535  -42.7992   46.2834  -43.0391   46.4392 -827.0225  -27.7032
  4.240  -45.5289   52.4338  -39.1914   48.6599  -39.4603   48.8418  -39.0380   62.4299  -44.3241   45.2887  -44.5719   45.4274 -810.5417  -28.0010
  4.250  -47.6553   51.2845  -41.0058   47.9832  -41.2797   48.1234  -42.2400   61.8277  -45.6892   44.1223  -45.9416   44.2447 -790.5084  -28.2915
  4.260  -49.5949   49.8691  -42.7063   47.0772  -42.9780   47.1774  -45.3175   60.7657  -46.8769   42.8210  -47.1312   42.9283 -767.1187  -28.5735
  4.270  -51.3102   48.2333  -44.2589   45.9711  -44.5221   46.0342  -48.1857   59.2858  -47.8787   41.4217  -48.1327   41.5155 -740.6259  -28.8456
  4.280  -52.7767   46.4272  -45.6380   44.6996  -45.8876   44.7295  -50.7761   57.4487  -48.6942   39.9593  -48.9465   40.0415 -711.3359  -29.1070
  4.290  -53.9824   44.5026  -46.8275   43.3004  -47.0597   43.3017  -53.0400   55.3267  -49.3295   38.4648  -49.5790   38.5372 -679.6019  -29.3568
  4.300  -54.9274   42.5088  -47.8203   41.8112  -48.0327   41.7888  -54.9498   52.9967  -49.7952   36.9647  -50.0414   37.0292 -645.8168  -29.5941
  4.310  -55.6210   40.4902  -48.6174   40.2680  -48.8087   40.2265  -56.4981   50.5341  -50.1053   35.4808  -50.3480   35.5391 -610.4042  -29.8184
  4.320  -56.0804   38.4847  -49.2268   38.7024  -49.3966   38.6462  -57.6938   48.0074  -50.2750   34.0301  -50.5144   34.0834 -573.8086  -30.0293
  4.330  -56.3272   36.5229  -49.6609   37.1415  -49.8096   37.0744  -58.5583   45.4752  -50.3207   32.6251  -50.5569   32.6748 -536.4845  -30.2265
  4.340  -56.3857   34.6281  -49.9354   35.6069  -50.0640   35.5323  -59.1214   42.9850  -50.2580   31.2748  -50.4916   31.3219 -498.8853  -30.4098
  4.350  -56.2812   32.8169  -50.0677   34.1153  -50.1774   34.0358  -59.4173   40.5730  -50.1019   29.9851  -50.3334   30.0303 -461.4523  -30.5794
  4.360  -56.0380   31.1001  -50.0753   32.6787  -50.1677   32.5964  -59.4818   38.2649  -49.8664   28.7591  -50.0963   28.8030 -424.6043  -30.7354
  4.370  -55.6791   29.4838  -49.9754   31.3052  -50.0519   31.2218  -59.3499   36.0778  -49.5638   27.5981  -49.7927   27.6414 -388.7277  -30.8783
  4.380  -55.2253   27.9701  -49.7839   29.9996  -49.8462   29.9163  -59.0542   34.0212  -49.2054   26.5022  -49.4337   26.5450 -354.1687  -31.0084
  4.390  -54.6949   26.5584  -49.5155   28.7640  -49.5649   28.6818  -58.6244   32.0990  -48.8009   25.4699  -49.0292   25.5127 -321.2267  -31.1265
  4.400  -54.1040   25.2461  -49.1830   27.5989  -49.2210   27.5183  -58.0867   30.3110  -48.3588   24.4993  -48.5874   24.5422 -290.1497  -31.2331
  4.410  -53.4663   24.0290  -48.7980   26.5031  -48.8256   26.4245  -57.4636   28.6537  -47.8863   23.5878  -48.1157   23.6310 -261.1317  -31.3291
  4.420  -52.7934   22.9023  -48.3701   25.4745  -48.3886   25.3981  -56.7744   27.1218  -47.3897   22.7327  -47.6203   22.7762 -234.3124  -31.4152
  4.430  -52.0948   21.8603  -47.9080   24.5103  -47.9182   24.4362  -56.0354   25.7084  -46.8744   21.9310  -47.1065   21.9748 -209.7783  -31.4923
  4.440  -51.3787   20.8976  -47.4188   23.6073  -47.4215   23.5356  -55.2599   24.4063  -46.3447   21.1795  -46.5787   21.2238 -187.5658  -31.5612
  4.450  -50.6515   20.0085  -46.9084   22.7622  -46.9045   22.6927  -54.4591   23.2076  -45.8046   20.4753  -46.0407   20.5201 -167.6659  -31.6228
  4.460  -49.9185   19.1874  -46.3821   21.9715  -46.3720   21.9041  -53.6420   22.1048  -45.2571   19.8155  -45.4956   19.8607 -150.0297  -31.6780
  4.470  -49.1841   18.4291  -45.8441   21.2318  -45.8283   21.1664  -52.8158   21.0903  -44.7049   19.1972  -44.9461   19.2428 -134.5748  -31.7274
  4.480  -48.4517   17.7287  -45.2979   20.5398  -45.2769   20.4761  -51.9865   20.1570  -44.1502   18.6177  -44.3944   18.6638 -121.1919  -31.7720
  4.490  -47.7240   17.0815  -44.7465   19.8922  -44.7206   19.8302  -51.1587   19.2983  -43.5949   18.0745  -43.8422   18.1210 -109.7518  -31.8123
  4.500  -47.0031   16.4833  -44.1922   19.2862  -44.1617   19.2255  -50.3361   18.5078  -43.0405   17.5652  -43.2911   17.6121 -100.1120  -31.8491
  4.510  -46.2907   15.9301  -43.6371   18.7188  -43.6022   18.6594  -49.5215   17.7799  -42.4881   17.0876  -42.7423   17.1349  -92.1228  -31.8829
  4.520  -45.5880   15.4183  -43.0828   18.1875  -43.0436   18.1291  -48.7170   17.1092  -41.9388   16.6397  -42.1968   16.6873  -85.6322  -31.9144
  4.530  -44.8959   14.9446  -42.5306   17.6897  -42.4873   17.6322  -47.9243   16.4909  -41.3935   16.2195  -41.6554   16.2675  -80.4913  -31.9440
  4.540  -44.2150   14.5059  -41.9817   17.2232  -41.9343   17.1664  -47.1447   15.9207  -40.8527   15.8252  -41.1189   15.8735  -76.5572  -31.9721
  4.550  -43.5459   14.0996  -41.4368   16.7860  -41.3854   16.7297  -46.3789   15.3945  -40.3171   15.4553  -40.5876   15.5039  -73.6965  -31.9992
  4.560  -42.8888   13.7231  -40.8966   16.3760  -40.8413   16.3202  -45.6275   14.9086  -39.7869   15.1081  -40.0621   15.1570  -71.7865  -32.0256
  4.570  -42.2438   13.3743  -40.3618   15.9916  -40.3026   15.9361  -44.8908   14.4600  -39.2626   14.7824  -39.5426   14.8315  -70.7172  -32.0516
  4.580  -41.6110   13.0509  -39.8327   15.6310  -39.7695   15.5758  -44.1690   14.0454  -38.7443   14.4769  -39.0294   14.5262  -70.3913  -32.0774
  4.590  -40.9903   12.7512  -39.3096   15.2929  -39.2424   15.2378  -43.4622   13.6624  -38.2323   14.1903  -38.5226   14.2398  -70.7240  -32.1034
  4.600  -40.3816   12.4734  -38.7929   14.9758  -38.7216   14.9207  -42.7702   13.3084  -37.7266   13.9216  -38.0224   13.9713  -71.6431  -32.1298
  4.610  -39.7846   12.2161  -38.2826   14.6785  -38.2072   14.6232  -42.0928   12.9812  -37.2273   13.6699  -37.5289   13.7196  -73.0877  -32.1566
  4.620  -39.1993   11.9779  -37.7789   14.3997  -37.6992   14.3444  -41.4298   12.6790  -36.7345   13.4341  -37.0420   13.4839  -75.0072  -32.1842
  4.630  -38.6253   11.7574  -37.2818   14.1386  -37.1978   14.0830  -40.7808   12.3998  -36.2480   13.2134  -36.5618   13.2634  -77.3605  -32.2126
  4.640  -38.0624   11.5536  -36.7914   13.8940  -36.7030   13.8382  -40.1457   12.1420  -35.7680   13.0072  -36.0884   13.0571  -80.1141  -32.2420
  4.650  -37.5104   11.3655  -36.3077   13.6651  -36.2147   13.6090  -39.5239   11.9043  -35.2944   12.8146  -35.6216   12.8645  -83.2417  -32.2726
  4.660  -36.9689   11.1920  -35.8307   13.4511  -35.7329   13.3947  -38.9151   11.6852  -34.8271   12.6351  -35.1613   12.6848  -86.7225  -32.3045
  4.670  -36.4376   11.0323  -35.3602   13.2512  -35.2576   13.1945  -38.3190   11.4836  -34.3660   12.4680  -34.7077   12.5176  -90.5402  -32.3378
  4.680  -35.9163   10.8857  -34.8963   13.0648  -34.7887   13.0077  -37.7352   11.2984  -33.9110   12.3129  -34.2605   12.3621  -94.6823  -32.3726
  4.690  -35.4047   10.7514  -34.4389   12.8913  -34.3261   12.8338  -37.1632   11.1286  -33.4622   12.1691  -33.8197   12.2180  -99.1391  -32.4090
  4.700  -34.9025   10.6288  -33.9879   12.7299  -33.8697   12.6720  -36.6028   10.9734  -33.0192   12.0362  -33.3852   12.0847 -103.9032  -32.4472
  4.710  -34.4095   10.5174  -33.5432   12.5803  -33.4195   12.5221  -36.0535   10.8318  -32.5822   11.9139  -32.9569   11.9619 -108.9686  -32.4872
  4.720  -33.9253   10.4165  -33.1048   12.4419  -32.9752   12.3833  -35.5149   10.7033  -32.1509   11.8018  -32.5348   11.8491 -114.3304  -32.5293
  4.730  -33.4497   10.3258  -32.6724   12.3143  -32.5369   12.2554  -34.9868   10.5870  -31.7252   11.6994  -32.1188   11.7460 -119.9844  -32.5733
  4.740  -32.9825   10.2448  -32.2461   12.1971  -32.1043   12.1379  -34.4687   10.4826  -31.3052   11.6066  -31.7088   11.6522 -125.9269  -32.6196
  4.750  -32.5234   10.1731  -31.8258   12.0899  -31.6775   12.0304  -33.9604   10.3893  -30.8906   11.5230  -31.3047   11.5675 -132.1543  -32.6682
  4.760  -32.0723   10.1103  -31.4113   11.9924  -31.2562   11.9327  -33.4616   10.3068  -30.4813   11.4483  -30.9064   11.4915 -138.6632  -32.7191
  4.770  -31.6288   10.0561  -31.0025   11.9042  -30.8405   11.8443  -32.9719   10.2345  -30.0773   11.3823  -30.5139   11.4241 -145.4498  -32.7726
  4.780  -31.1928   10.0103  -30.5995   11.8251  -30.4301   11.7652  -32.4910   10.1721  -29.6785   11.3249  -30.1272   11.3650 -152.5106  -32.8286
  4.790  -30.7641    9.9725  -30.2020   11.7549  -30.0250   11.6949  -32.0187   10.1193  -29.2848   11.2758  -29.7460   11.3140 -159.8417  -32.8874
  4.800  -30.3425    9.9425  -29.8100   11.6932  -29.6250   11.6334  -31.5548   10.0757  -28.8961   11.2348  -29.3705   11.2709 -167.4391  -32.9489
  4.810  -29.9279    9.9201  -29.4235   11.6400  -29.2302   11.5803  -31.0990   10.0410  -28.5124   11.2019  -29.0006   11.2355 -175.2988  -33.0133
  4.820  -29.5200    9.9052  -29.0423   11.5949  -28.8404   11.5355  -30.6510   10.0151  -28.1335   11.1769  -28.6362   11.2076 -183.4169  -33.0807
  4.830  -29.1188    9.8974  -28.6664   11.5578  -28.4554   11.4989  -30.2106    9.9975  -27.7594   11.1597  -28.2773   11.1872 -191.7896  -33.1512
  4.840  -28.7240    9.8968  -28.2958   11.5285  -28.0753   11.4703  -29.7777    9.9883  -27.3901   11.1502  -27.9238   11.1740 -200.4131  -33.2249
  4.850  -28.3356    9.9031  -27.9304   11.5070  -27.7000   11.4496  -29.3521    9.9872  -27.0254   11.1483  -27.5758   11.1681 -209.2844  -33.3018
  4.860  -27.9534    9.9162  -27.5701   11.4931  -27.3293   11.4367  -28.9336    9.9940  -26.6654   11.1540  -27.2333   11.1691 -218.4005  -33.3821
  4.870  -27.5773    9.9360  -27.2149   11.4866  -26.9632   11.4316  -28.5219   10.0087  -26.3100   11.1672  -26.8962   11.1772 -227.7593  -33.4658
  4.880  -27.2072    9.9624  -26.8647   11.4875  -26.6017   11.4340  -28.1170   10.0311  -25.9592   11.1880  -26.5646   11.1920 -237.3595  -33.5530
  4.890  -26.8429    9.9954  -26.5196   11.4957  -26.2447   11.4441  -27.7188   10.0612  -25.6128   11.2162  -26.2385   11.2137 -247.2005  -33.6438
  4.900  -26.4844   10.0348  -26.1794   11.5111  -25.8920   11.4617  -27.3270   10.0988  -25.2710   11.2520  -25.9179   11.2420 -257.2825  -33.7384
  4.910  -26.1317   10.0807  -25.8442   11.5337  -25.5437   11.4868  -26.9416   10.1440  -24.9337   11.2953  -25.6029   11.2769 -267.6068  -33.8367
  4.920  -25.7845   10.1329  -25.5140   11.5634  -25.1998   11.5195  -26.5624   10.1967  -24.6009   11.3461  -25.2934   11.3184 -278.1757  -33.9389
  4.930  -25.4428   10.1914  -25.1886   11.6002  -24.8600   11.5598  -26.1895   10.2569  -24.2725   11.4046  -24.9896   11.3663 -288.9921  -34.0451
  4.940  -25.1066   10.2563  -24.8682   11.6440  -24.5245   11.6077  -25.8226   10.3247  -23.9487   11.4708  -24.6914   11.4207 -300.0598  -34.1554
  4.950  -24.7757   10.3275  -24.5526   11.6949  -24.1931   11.6633  -25.4616   10.4001  -23.6293   11.5448  -24.3990   11.4813 -311.3828  -34.2698
  4.960  -24.4500   10.4051  -24.2420   11.7528  -23.8659   11.7266  -25.1067   10.4831  -23.3145   11.6267  -24.1124   11.5483 -322.9655  -34.3885
  4.970  -24.1295   10.4890  -23.9362   11.8179  -23.5427   11.7978  -24.7575   10.5738  -23.0043   11.7166  -23.8317   11.6214 -334.8115  -34.5116
  4.980  -23.8141   10.5795  -23.6353   11.8901  -23.2235   11.8770  -24.4142   10.6724  -22.6986   11.8147  -23.5570   11.7008 -346.9240  -34.6391
  4.990  -23.5037   10.6764  -23.3392   11.9694  -22.9084   11.9644  -24.0767   10.7790  -22.3977   11.9213  -23.2883   11.7862 -359.3042  -34.7711
  5.000  -23.1982   10.7801  -23.0481   12.0561  -22.5973   12.0602  -23.7449   10.8937  -22.1016   12.0365  -23.0257   11.8776 -371.9512  -34.9078
  5.010  -22.8976   10.8906  -22.7618   12.1503  -22.2902   12.1647  -23.4190   11.0169  -21.8103   12.1606  -22.7693   11.9751 -384.8608  -35.0492
  5.020  -22.6018   11.0082  -22.4804   12.2520  -21.9871   12.2782  -23.0988   11.1487  -21.5241   12.2939  -22.5192   12.0785 -398.0246  -35.1955
  5.030  -22.3106   11.1331  -22.2040   12.3615  -21.6881   12.4010  -22.7844   11.2895  -21.2430   12.4367  -22.2755   12.1878 -411.4294  -35.3467
  5.040  -22.0241   11.2656  -21.9326   12.4790  -21.3932   12.5335  -22.4761   11.4396  -20.9674   12.5894  -22.0382   12.3030 -425.0558  -35.5029
  5.050  -21.7423   11.4062  -21.6663   12.6048  -21.1026   12.6762  -22.1738   11.5994  -20.6975   12.7524  -21.8074   12.4240 -438.8774  -35.6642
  5.060  -21.4652   11.5553  -21.4053   12.7394  -20.8164   12.8297  -21.8778   11.7694  -20.4336   12.9263  -21.5832   12.5509 -452.8603  -35.8306
  5.070  -21.1928   11.7133  -21.1496   12.8829  -20.5349   12.9946  -21.5884   11.9503  -20.1761   13.1116  -21.3657   12.6836 -466.9618  -36.0022
  5.080  -20.9254   11.8811  -20.8996   13.0360  -20.2583   13.1715  -21.3059   12.1424  -19.9257   13.3088  -21.1550   12.8223 -481.1303  -36.1790
  5.090  -20.6632   12.0592  -20.6556   13.1992  -19.9873   13.3612  -21.0309   12.3467  -19.6829   13.5185  -20.9512   12.9669 -495.3049  -36.3611
  5.100  -20.4065   12.2486  -20.4181   13.3730  -19.7223   13.5646  -20.7640   12.5636  -19.4487   13.7415  -20.7544   13.1176 -509.4153  -36.5483
  5.110  -20.1561   12.4501  -20.1875   13.5580  -19.4640   13.7825  -20.5061   12.7941  -19.2238   13.9783  -20.5647   13.2745 -523.3819  -36.7406
  5.120  -19.9126   12.6646  -19.9648   13.7550  -19.2135   14.0159  -20.2582   13.0389  -19.0097   14.2296  -20.3824   13.4377 -537.1168  -36.9380
  5.130  -19.6772   12.8932  -19.7508   13.9645  -18.9719   14.2656  -20.0217   13.2988  -18.8076   14.4961  -20.2077   13.6076 -550.5244  -37.1403
  5.140  -19.4511   13.1368  -19.5468   14.1873  -18.7406   14.5328  -19.7981   13.5744  -18.6194   14.7781  -20.0408   13.7843 -563.5029  -37.3474
  5.150  -19.2362   13.3964  -19.3541   14.4237  -18.5214   14.8181  -19.5893   13.8662  -18.4469   15.0761  -19.8822   13.9682 -575.9457  -37.5590
  5.160  -19.0344   13.6726  -19.1745   14.6743  -18.3164   15.1224  -19.3976   14.1747  -18.2924   15.3900  -19.7324   14.1595 -587.7435  -37.7750
  5.170  -18.8483   13.9658  -19.0099   14.9392  -18.1279   15.4462  -19.2255   14.4997  -18.1584   15.7198  -19.5919   14.3586 -598.7865  -37.9951
  5.180  -18.6805   14.2761  -18.8625   15.2181  -17.9587   15.7898  -19.0759   14.8409  -18.0477   16.0646  -19.4616   14.5658 -608.9665  -38.2189
  5.190  -18.5341   14.6029  -18.7347   15.5107  -17.8119   16.1531  -18.9518   15.1973  -17.9630   16.4235  -19.3423   14.7814 -618.1795  -38.4461
  5.200  -18.4123   14.9452  -18.6288   15.8157  -17.6908   16.5355  -18.8562   15.5673  -17.9073   16.7946  -19.2352   15.0055 -626.3282  -38.6762
  5.210  -18.3183   15.3010  -18.5474   16.1317  -17.5989   16.9357  -18.7922   15.9486  -17.8834   17.1757  -19.1415   15.2381 -633.3244  -38.9090
  5.220  -18.2551   15.6679  -18.4927   16.4567  -17.5398   17.3519  -18.7627   16.3382  -17.8938   17.5636  -19.0626   15.4792 -639.0911  -39.1438
  5.230  -18.2252   16.0424  -18.4665   16.7880  -17.5172   17.7815  -18.7698   16.7323  -17.9407   17.9549  -19.0003   15.7283 -643.5646  -39.3803
  5.240  -18.2305   16.4206  -18.4706   17.1226  -17.5342   18.2212  -18.8154   17.1268  -18.0257   18.3454  -18.9560   15.9848 -646.6960  -39.6180
  5.250  -18.2723   16.7982  -18.5058   17.4572  -17.5939   18.6668  -18.9002   17.5168  -18.1496   18.7305  -18.9315   16.2476 -648.4527  -39.8563
  5.260  -18.3508   17.1706  -18.5724   17.7884  -17.6985   19.1135  -19.0244   17.8974  -18.3124   19.1056  -18.9285   16.5153 -648.8188  -40.0947
  5.270  -18.4654   17.5334  -18.6704   18.1127  -17.8496   19.5558  -19.1868   18.2639  -18.5134   19.4660  -18.9484   16.7864 -647.7958  -40.3328
  5.280  -18.6146   17.8821  -18.7989   18.4266  -18.0479   19.9881  -19.3858   18.6115  -18.7510   19.8070  -18.9927   17.0586 -645.4022  -40.5700
  5.290  -18.7964   18.2131  -18.9566   18.7271  -18.2929   20.4042  -19.6186   18.9361  -19.0228   20.1244  -19.0623   17.3296 -641.6730  -40.8058
  5.300  -19.0079   18.5231  -19.1417   19.0114  -18.5832   20.7982  -19.8821   19.2342  -19.3258   20.4145  -19.1580   17.5968 -636.6584  -41.0397
  5.310  -19.2464   18.8095  -19.3524   19.2770  -18.9163   21.1643  -20.1727   19.5029  -19.6566   20.6742  -19.2800   17.8574 -630.4225  -41.2714
  5.320  -19.5084   19.0703  -19.5863   19.5221  -19.2889   21.4973  -20.4863   19.7401  -20.0113   20.9009  -19.4282   18.1085 -623.0412  -41.5004
  5.330  -19.7910   19.3042  -19.8412   19.7448  -19.6967   21.7925  -20.8191   19.9443  -20.3859   21.0929  -19.6019   18.3472 -614.6006  -41.7262
  5.340  -20.0909   19.5103  -20.1148   19.9439  -20.1347   22.0461  -21.1671   20.1148  -20.7764   21.2489  -19.8000   18.5706 -605.1943  -41.9487
  5.350  -20.4053   19.6881  -20.4048   20.1183  -20.5977   22.2552  -21.5267   20.2513  -21.1786   21.3683  -20.0212   18.7761 -594.9213  -42.1673
  5.360  -20.7315   19.8374  -20.7087   20.2673  -21.0800   22.4177  -21.8943   20.3542  -21.5888   21.4511  -20.2635   18.9615 -583.8837  -42.3819
  5.370  -21.0670   19.9585  -21.0243   20.3902  -21.5758   22.5326  -22.2667   20.4239  -22.0032   21.4977  -20.5248   19.1245 -572.1844  -42.5921
  5.380  -21.4095   20.0514  -21.3495   20.4868  -22.0796   22.5995  -22.6411   20.4613  -22.4185   21.5090  -20.8027   19.2634 -559.9251  -42.7979
  5.390  -21.7568   20.1166  -21.6820   20.5569  -22.5860   22.6190  -23.0148   20.4676  -22.8315   21.4861  -21.0945   19.3768 -547.2045  -42.9990
  5.400  -22.1071   20.1544  -22.0197   20.6004  -23.0898   22.5925  -23.3855   20.4439  -23.2393   21.4303  -21.3976   19.4638 -534.1164  -43.1953
  5.410  -22.4584   20.1655  -22.3606   20.6174  -23.5865   22.5217  -23.7511   20.3917  -23.6396   21.3433  -21.7093   19.5236 -520.7490  -43.3866
  5.420  -22.8090   20.1504  -22.7027   20.6083  -24.0718   22.4090  -24.1099   20.3122  -24.0299   21.2268  -22.0268   19.5561 -507.1835  -43.5730
  5.430  -23.1572   20.1097  -23.0439   20.5735  -24.5422   22.2570  -24.4600   20.2070  -24.4085   21.0826  -22.3474   19.5613 -493.4934  -43.7544
  5.440  -23.5015   20.0441  -23.3825   20.5136  -24.9945   22.0689  -24.8002   20.0775  -24.7736   20.9126  -22.6687   19.5395 -479.7443  -43.9307
  5.450  -23.8402   19.9545  -23.7167   20.4293  -25.4262   21.8477  -25.1292   19.9251  -25.1239   20.7188  -22.9881   19.4914 -465.9938  -44.1019
  5.460  -24.1719   19.8415  -24.0449   20.3214  -25.8352   21.5967  -25.4457   19.7514  -25.4580   20.5032  -23.3034   19.4179 -452.2916  -44.2682
  5.470  -24.4952   19.7063  -24.3653   20.1909  -26.2198   21.3193  -25.7488   19.5578  -25.7751   20.2675  -23.6127   19.3201 -438.6795  -44.4294
  5.480  -24.8088   19.5498  -24.6767   20.0388  -26.5789   21.0187  -26.0377   19.3457  -26.0743   20.0139  -23.9140   19.1991 -425.1925  -44.5856
  5.490  -25.1113   19.3731  -24.9775   19.8664  -26.9118   20.6980  -26.3115   19.1168  -26.3551   19.7441  -24.2057   19.0565 -411.8591  -44.7370
  5.500  -25.4018   19.1774  -25.2667   19.6747  -27.2181   20.3604  -26.5697   18.8724  -26.6170   19.4600  -24.4863   18.8938 -398.7016  -44.8835
  5.510  -25.6791   18.9639  -25.5432   19.4652  -27.4976   20.0087  -26.8118   18.6140  -26.8598   19.1633  -24.7548   18.7123 -385.7376  -45.0253
  5.520  -25.9423   18.7340  -25.8060   19.2393  -27.7508   19.6456  -27.0373   18.3430  -27.0834   18.8558  -25.0101   18.5138 -372.9803  -45.1623
  5.530  -26.1906   18.4890  -26.0543   18.9982  -27.9779   19.2736  -27.2459   18.0610  -27.2877   18.5391  -25.2514   18.2998 -360.4391  -45.2948
  5.540  -26.4234   18.2303  -26.2875   18.7435  -28.1796   18.8951  -27.4375   17.7693  -27.4728   18.2148  -25.4781   18.0719 -348.1207  -45.4227
  5.550  -26.6401   17.9594  -26.5051   18.4766  -28.3568   18.5121  -27.6119   17.4693  -27.6391   17.8844  -25.6897   17.8317 -336.0292  -45.5462
  5.560  -26.8403   17.6777  -26.7067   18.1989  -28.5103   18.1266  -27.7693   17.1623  -27.7867   17.5492  -25.8860   17.5806 -324.1673  -45.6653
  5.570  -27.0238   17.3865  -26.8920   17.9118  -28.6412   17.7401  -27.9096   16.8496  -27.9161   17.2106  -26.0667   17.3201 -312.5362  -45.7802
  5.580  -27.1904   17.0874  -27.0610   17.6166  -28.7506   17.3542  -28.0331   16.5324  -28.0278   16.8698  -26.2320   17.0517 -301.1364  -45.8909
  5.590  -27.3401   16.7817  -27.2137   17.3148  -28.8395   16.9703  -28.1400   16.2120  -28.1223   16.5280  -26.3818   16.7765 -289.9677  -45.9974
  5.600  -27.4730   16.4706  -27.3501   17.0075  -28.9091   16.5893  -28.2308   15.8895  -28.2003   16.1861  -26.5163   16.4959 -279.0297  -46.1000
  5.610  -27.5892   16.1555  -27.4704   16.6960  -28.9605   16.2123  -28.3059   15.5658  -28.2622   15.8451  -26.6357   16.2109 -268.3222  -46.1986
  5.620  -27.6892   15.8375  -27.5750   16.3813  -28.9949   15.8401  -28.3656   15.2421  -28.3088   15.5060  -26.7405   15.9227 -257.8447  -46.2933
  5.630  -27.7731   15.5179  -27.6640   16.0647  -29.0134   15.4734  -28.4106   14.9191  -28.3408   15.1694  -26.8309   15.6322 -247.5972  -46.3843
  5.640  -27.8416   15.1975  -27.7381   15.7471  -29.0170   15.1127  -28.4414   14.5977  -28.3588   14.8361  -26.9074   15.3404 -237.5797  -46.4716
  5.650  -27.8951   14.8775  -27.7976   15.4294  -29.0067   14.7585  -28.4586   14.2787  -28.3637   14.5067  -26.9704   15.0480 -227.7927  -46.5553
  5.660  -27.9340   14.5586  -27.8430   15.1124  -28.9836   14.4112  -28.4628   13.9627  -28.3560   14.1817  -27.0205   14.7559 -218.2367  -46.6355
  5.670  -27.9592   14.2418  -27.8749   14.7970  -28.9485   14.0710  -28.4547   13.6504  -28.3365   13.8617  -27.0580   14.4648 -208.9125  -46.7123
  5.680  -27.9710   13.9276  -27.8938   14.4838  -28.9024   13.7383  -28.4349   13.3422  -28.3060   13.5469  -27.0835   14.1752 -199.8211  -46.7857
  5.690  -27.9703   13.6169  -27.9003   14.1735  -28.8460   13.4130  -28.4041   13.0387  -28.2650   13.2378  -27.0977   13.8877 -190.9635  -46.8559
  5.700  -27.9577   13.3101  -27.8951   13.8666  -28.7803   13.0954  -28.3629   12.7402  -28.2143   12.9346  -27.1008   13.6028 -182.3409  -46.9229
  5.710  -27.9337   13.0077  -27.8787   13.5636  -28.7058   12.7855  -28.3120   12.4471  -28.1545   12.6376  -27.0936   13.3210 -173.9545  -46.9868
  5.720  -27.8992   12.7102  -27.8518   13.2650  -28.6234   12.4833  -28.2521   12.1597  -28.0863   12.3470  -27.0766   13.0427 -165.8052  -47.0478
  5.730  -27.8547   12.4179  -27.8149   12.9712  -28.5336   12.1888  -28.1836   11.8782  -28.0103   12.0628  -27.0502   12.7683 -157.8939  -47.1058
  5.740  -27.8008   12.1312  -27.7687   12.6824  -28.4372   11.9020  -28.1073   11.6027  -27.9270   11.7853  -27.0150   12.4979 -150.2215  -47.1610
  5.750  -27.7383   11.8503  -27.7137   12.3990  -28.3346   11.6228  -28.0238   11.3335  -27.8371   11.5144  -26.9714   12.2320 -142.7883  -47.2135
  5.760  -27.6678   11.5754  -27.6505   12.1211  -28.2264   11.3511  -27.9335   11.0706  -27.7410   11.2501  -26.9201   11.9707 -135.5946  -47.2633
  5.770  -27.5897   11.3066  -27.5797   11.8489  -28.1131   11.0868  -27.8370   10.8141  -27.6392   10.9926  -26.8615   11.7142 -128.6403  -47.3106
  5.780  -27.5048   11.0441  -27.5018   11.5827  -27.9951   10.8299  -27.7348   10.5640  -27.5323   10.7417  -26.7959   11.4627 -121.9250  -47.3554
  5.790  -27.4135   10.7879  -27.4174   11.3224  -27.8730   10.5801  -27.6275   10.3203  -27.4208   10.4975  -26.7241   11.2162 -115.4478  -47.3978
  5.800  -27.3163   10.5381  -27.3268   11.0681  -27.7471   10.3374  -27.5155   10.0830  -27.3049   10.2598  -26.6462   10.9750 -109.2075  -47.4380
  5.810  -27.2138   10.2947  -27.2307   10.8200  -27.6177   10.1016  -27.3991    9.8521  -27.1852   10.0286  -26.5628   10.7390 -103.2025  -47.4759
  5.820  -27.1065   10.0576  -27.1294   10.5780  -27.4854    9.8725  -27.2789    9.6274  -27.0621    9.8038  -26.4743   10.5083  -97.4308  -47.5117
  5.830  -26.9947    9.8269  -27.0235   10.3421  -27.3503    9.6501  -27.1552    9.4090  -26.9358    9.5852  -26.3811   10.2829  -91.8900  -47.5455
  5.840  -26.8789    9.6024  -26.9132   10.1122  -27.2128    9.4341  -27.0284    9.1966  -26.8067    9.3729  -26.2835   10.0629  -86.5774  -47.5773
  5.850  -26.7595    9.3841  -26.7991    9.8884  -27.0732    9.2244  -26.8988    8.9903  -26.6752    9.1665  -26.1819    9.8482  -81.4897  -47.6072
  5.860  -26.6369    9.1720  -26.6814    9.6705  -26.9318    9.0209  -26.7667    8.7898  -26.5415    8.9661  -26.0767    9.6388  -76.6233  -47.6354
  5.870  -26.5113    8.9658  -26.5606    9.4585  -26.7887    8.8234  -26.6325    8.5951  -26.4059    8.7715  -25.9681    9.4346  -71.9743  -47.6618
  5.880  -26.3832    8.7655  -26.4369    9.2524  -26.6444    8.6316  -26.4964    8.4061  -26.2686    8.5825  -25.8565    9.2356  -67.5386  -47.6866
  5.890  -26.2529    8.5710  -26.3107    9.0519  -26.4988    8.4455  -26.3586    8.2225  -26.1300    8.3989  -25.7422    9.0418  -63.3115  -47.7099
  5.900  -26.1205    8.3820  -26.1822    8.8570  -26.3524    8.2650  -26.2194    8.0443  -25.9901    8.2208  -25.6254    8.8530  -59.2881  -47.7317
  5.910  -25.9864    8.1987  -26.0517    8.6676  -26.2051    8.0897  -26.0791    7.8713  -25.8493    8.0478  -25.5064    8.6692  -55.4635  -47.7521
  5.920  -25.8508    8.0206  -25.9195    8.4835  -26.0573    7.9197  -25.9378    7.7034  -25.7076    7.8799  -25.3854    8.4902  -51.8322  -47.7711
  5.930  -25.7140    7.8478  -25.7858    8.3047  -25.9091    7.7546  -25.7957    7.5404  -25.5654    7.7169  -25.2626    8.3161  -48.3888  -47.7889
  5.940  -25.5761    7.6801  -25.6508    8.1309  -25.7606    7.5945  -25.6530    7.3823  -25.4226    7.5587  -25.1383    8.1467  -45.1275  -47.8055
  5.950  -25.4374    7.5173  -25.5147    7.9621  -25.6119    7.4390  -25.5098    7.2288  -25.2796    7.4050  -25.0127    7.9818  -42.0425  -47.8210
  5.960  -25.2979    7.3593  -25.3778    7.7982  -25.4632    7.2882  -25.3663    7.0797  -25.1363    7.2559  -24.8860    7.8214  -39.1278  -47.8353
  5.970  -25.1580    7.2060  -25.2401    7.6390  -25.3146    7.1417  -25.2227    6.9351  -24.9930    7.1111  -24.7582    7.6655  -36.3774  -47.8487
  5.980  -25.0177    7.0572  -25.1019    7.4844  -25.1663    6.9996  -25.0790    6.7947  -24.8498    6.9705  -24.6297    7.5137  -33.7852  -47.8611
  5.990  -24.8771    6.9127  -24.9632    7.3342  -25.0182    6.8616  -24.9354    6.6584  -24.7067    6.8340  -24.5005    7.3662  -31.3450  -47.8726
  6.000  -24.7365    6.7726  -24.8243    7.1883  -24.8705    6.7276  -24.7919    6.5261  -24.5638    6.7014  -24.3707    7.2227  -29.0508  -47.8833
  6.010  -24.5959    6.6365  -24.6852    7.0466  -24.7233    6.5975  -24.6487    6.3976  -24.4213    6.5727  -24.2406    7.0831  -26.8965  -47.8932
  6.020  -24.4553    6.5044  -24.5461    6.9089  -24.5766    6.4711  -24.5059    6.2728  -24.2792    6.4476  -24.1102    6.9474  -24.8758  -47.9023
  6.030  -24.3151    6.3761  -24.4071    6.7752  -24.4305    6.3484  -24.3635    6.1516  -24.1376    6.3261  -23.9796    6.8154  -22.9829  -47.9108
  6.040  -24.1751    6.2516  -24.2682    6.6453  -24.2851    6.2292  -24.2216    6.0339  -23.9966    6.2080  -23.8489    6.6870  -21.2117  -47.9186
  6.050  -24.0355    6.1306  -24.1296    6.5191  -24.1404    6.1134  -24.0803    5.9196  -23.8562    6.0933  -23.7183    6.5621  -19.5564  -47.9258
  6.060  -23.8963    6.0132  -23.9914    6.3964  -23.9965    6.0008  -23.9395    5.8085  -23.7164    5.9818  -23.5878    6.4406  -18.0113  -47.9324
  6.070  -23.7577    5.8991  -23.8535    6.2772  -23.8534    5.8915  -23.7995    5.7005  -23.5774    5.8734  -23.4575    6.3225  -16.5708  -47.9385
  6.080  -23.6196    5.7883  -23.7162    6.1614  -23.7112    5.7852  -23.6602    5.5956  -23.4391    5.7680  -23.3274    6.2075  -15.2294  -47.9441
  6.090  -23.4823    5.6806  -23.5793    6.0488  -23.5699    5.6818  -23.5217    5.4936  -23.3016    5.6656  -23.1977    6.0957  -13.9817  -47.9492
  6.100  -23.3455    5.5759  -23.4431    5.9393  -23.4295    5.5813  -23.3840    5.3945  -23.1650    5.5659  -23.0684    5.9868  -12.8226  -47.9539
  6.110  -23.2096    5.4742  -23.3076    5.8329  -23.2900    5.4836  -23.2471    5.2981  -23.0292    5.4690  -22.9395    5.8809  -11.7471  -47.9582
  6.120  -23.0744    5.3753  -23.1727    5.7294  -23.1515    5.3886  -23.1111    5.2043  -22.8943    5.3747  -22.8111    5.7778  -10.7503  -47.9622
  6.130  -22.9400    5.2791  -23.0385    5.6287  -23.0141    5.2961  -22.9759    5.1131  -22.7604    5.2829  -22.6833    5.6775   -9.8276  -47.9658
  6.140  -22.8064    5.1856  -22.9052    5.5307  -22.8776    5.2061  -22.8418    5.0243  -22.6274    5.1936  -22.5561    5.5798   -8.9744  -47.9691
  6.150  -22.6737    5.0947  -22.7726    5.4354  -22.7422    5.1185  -22.7085    4.9380  -22.4953    5.1067  -22.4295    5.4847   -8.1864  -47.9721
  6.160  -22.5419    5.0062  -22.6409    5.3427  -22.6078    5.0333  -22.5762    4.8539  -22.3642    5.0221  -22.3036    5.3920   -7.4596  -47.9748
  6.170  -22.4110    4.9201  -22.5100    5.2524  -22.4745    4.9503  -22.4449    4.7721  -22.2341    4.9396  -22.1783    5.3018   -6.7900  -47.9773
  6.180  -22.2811    4.8364  -22.3800    5.1645  -22.3422    4.8695  -22.3146    4.6925  -22.1050    4.8594  -22.0538    5.2139   -6.1738  -47.9796
  6.190  -22.1521    4.7548  -22.2510    5.0790  -22.2111    4.7908  -22.1852    4.6149  -21.9769    4.7812  -21.9301    5.1283   -5.6073  -47.9817
  6.200  -22.0240    4.6754  -22.1228    4.9956  -22.0810    4.7141  -22.0569    4.5393  -21.8498    4.7050  -21.8071    5.0449   -5.0873  -47.9835
  6.210  -21.8969    4.5981  -21.9956    4.9145  -21.9520    4.6394  -21.9296    4.4657  -21.7238    4.6307  -21.6849    4.9635   -4.6105  -47.9852
  6.220  -21.7708    4.5228  -21.8693    4.8354  -21.8240    4.5666  -21.8033    4.3940  -21.5987    4.5583  -21.5635    4.8843   -4.1737  -47.9868
  6.230  -21.6457    4.4495  -21.7439    4.7584  -21.6972    4.4956  -21.6780    4.3241  -21.4747    4.4877  -21.4429    4.8070   -3.7742  -47.9882
  6.240  -21.5216    4.3780  -21.6196    4.6833  -21.5714    4.4264  -21.5538    4.2559  -21.3517    4.4189  -21.3231    4.7317   -3.4091  -47.9894
  6.250  -21.3985    4.3084  -21.4962    4.6101  -21.4468    4.3590  -21.4306    4.1895  -21.2298    4.3518  -21.2042    4.6582   -3.0759  -47.9905
  6.260  -21.2764    4.2405  -21.3738    4.5388  -21.3232    4.2932  -21.3084    4.1247  -21.1088    4.2864  -21.0862    4.5865   -2.7722  -47.9916
  6.270  -21.1552    4.1744  -21.2523    4.4692  -21.2007    4.2290  -21.1872    4.0615  -20.9889    4.2225  -20.9690    4.5166   -2.4957  -47.9925
  6.280  -21.0351    4.1098  -21.1319    4.4013  -21.0793    4.1664  -21.0671    3.9999  -20.8701    4.1601  -20.8527    4.4483   -2.2442  -47.9933
  6.290  -20.9160    4.0469  -21.0124    4.3351  -20.9589    4.1053  -20.9480    3.9398  -20.7522    4.0993  -20.7373    4.3818   -2.0158  -47.9940
  6.300  -20.7979    3.9855  -20.8939    4.2706  -20.8396    4.0456  -20.8299    3.8811  -20.6354    4.0399  -20.6227    4.3168   -1.8086  -47.9947
  6.310  -20.6808    3.9256  -20.7764    4.2075  -20.7214    3.9874  -20.7128    3.8238  -20.5195    3.9819  -20.5091    4.2533   -1.6209  -47.9953
  6.320  -20.5647    3.8672  -20.6599    4.1460  -20.6042    3.9305  -20.5967    3.7679  -20.4047    3.9253  -20.3963    4.1914   -1.4510  -47.9958
  6.330  -20.4496    3.8102  -20.5443    4.0860  -20.4881    3.8750  -20.4817    3.7133  -20.2909    3.8699  -20.2844    4.1309   -1.2974  -47.9963
  6.340  -20.3354    3.7545  -20.4298    4.0273  -20.3730    3.8208  -20.3676    3.6599  -20.1780    3.8159  -20.1734    4.0718   -1.1588  -47.9967
  6.350  -20.2223    3.7001  -20.3162    3.9700  -20.2589    3.7678  -20.2545    3.6078  -20.0662    3.7631  -20.0632    4.0140   -1.0337  -47.9971
  6.360  -20.1101    3.6470  -20.2036    3.9141  -20.1459    3.7160  -20.1424    3.5569  -19.9553    3.7115  -19.9540    3.9576   -0.9211  -47.9975
  6.370  -19.9989    3.5952  -20.0919    3.8595  -20.0339    3.6654  -20.0313    3.5072  -19.8454    3.6610  -19.8456    3.9025   -0.8198  -47.9978
  6.380  -19.8887    3.5445  -19.9812    3.8061  -19.9229    3.6159  -19.9212    3.4586  -19.7365    3.6117  -19.7381    3.8486   -0.7288  -47.9980
  6.390  -19.7794    3.4950  -19.8714    3.7539  -19.8128    3.5675  -19.8120    3.4111  -19.6285    3.5634  -19.6315    3.7959   -0.6472  -47.9983
  6.400  -19.6710    3.4466  -19.7626    3.7028  -19.7038    3.5202  -19.7037    3.3646  -19.5214    3.5162  -19.5257    3.7444   -0.5740  -47.9985
  6.410  -19.5637    3.3994  -19.6548    3.6530  -19.5957    3.4740  -19.5964    3.3192  -19.4153    3.4701  -19.4208    3.6940   -0.5085  -47.9987
  6.420  -19.4572    3.3531  -19.5478    3.6042  -19.4886    3.4287  -19.4901    3.2748  -19.3102    3.4249  -19.3168    3.6447   -0.4499  -47.9988
  6.430  -19.3517    3.3079  -19.4418    3.5565  -19.3825    3.3844  -19.3846    3.2313  -19.2059    3.3807  -19.2136    3.5966   -0.3976  -47.9990
  6.440  -19.2471    3.2637  -19.3367    3.5098  -19.2773    3.3411  -19.2801    3.1888  -19.1026    3.3375  -19.1113    3.5494   -0.3510  -47.9991
  6.450  -19.1434    3.2205  -19.2325    3.4642  -19.1730    3.2987  -19.1765    3.1472  -19.0002    3.2952  -19.0098    3.5032   -0.3095  -47.9992
  6.460  -19.0406    3.1782  -19.1292    3.4195  -19.0697    3.2572  -19.0738    3.1065  -18.8986    3.2537  -18.9092    3.4581   -0.2725  -47.9993
  6.470  -18.9386    3.1368  -19.0268    3.3758  -18.9673    3.2165  -18.9720    3.0666  -18.7980    3.2131  -18.8094    3.4139   -0.2397  -47.9994
  6.480  -18.8376    3.0962  -18.9253    3.3330  -18.8658    3.1767  -18.8711    3.0276  -18.6982    3.1734  -18.7104    3.3706   -0.2106  -47.9995
  6.490  -18.7375    3.0566  -18.8247    3.2911  -18.7652    3.1377  -18.7711    2.9894  -18.5993    3.1344  -18.6122    3.3282   -0.1848  -47.9995
  6.500  -18.6382    3.0178  -18.7249    3.2501  -18.6655    3.0995  -18.6719    2.9520  -18.5012    3.0963  -18.5149    3.2867   -0.1619  -47.9996
  6.510  -18.5398    2.9798  -18.6260    3.2099  -18.5666    3.0621  -18.5736    2.9153  -18.4040    3.0589  -18.4183    3.2460   -0.1417  -47.9997
  6.520  -18.4422    2.9425  -18.5279    3.1705  -18.4686    3.0255  -18.4761    2.8794  -18.3076    3.0223  -18.3226    3.2062   -0.1239  -47.9997
  6.530  -18.3454    2.9061  -18.4307    3.1320  -18.3715    2.9895  -18.3794    2.8442  -18.2121    2.9864  -18.2276    3.1671   -0.1082  -47.9997
  6.540  -18.2495    2.8704  -18.3343    3.0942  -18.2753    2.9543  -18.2836    2.8097  -18.1174    2.9512  -18.1334    3.1289   -0.0944  -47.9998
  6.550  -18.1544    2.8354  -18.2388    3.0572  -18.1798    2.9198  -18.1886    2.7760  -18.0235    2.9167  -18.0400    3.0914   -0.0822  -47.9998
  6.560  -18.0601    2.8011  -18.1440    3.0209  -18.0852    2.8859  -18.0944    2.7428  -17.9303    2.8829  -17.9474    3.0546   -0.0715  -47.9998
  6.570  -17.9667    2.7675  -18.0501    2.9853  -17.9914    2.8527  -18.0010    2.7104  -17.8380    2.8497  -17.8555    3.0186   -0.0621  -47.9999
  6.580  -17.8740    2.7345  -17.9569    2.9504  -17.8984    2.8202  -17.9084    2.6785  -17.7465    2.8171  -17.7644    2.9832   -0.0539  -47.9999
  6.590  -17.7821    2.7022  -17.8645    2.9162  -17.8062    2.7882  -17.8166    2.6473  -17.6557    2.7852  -17.6740    2.9486   -0.0467  -47.9999
  6.600  -17.6910    2.6705  -17.7730    2.8827  -17.7148    2.7569  -17.7255    2.6167  -17.5657    2.7539  -17.5844    2.9146   -0.0405  -47.9999
  6.610  -17.6006    2.6395  -17.6821    2.8498  -17.6242    2.7262  -17.6353    2.5866  -17.4765    2.7231  -17.4955    2.8813   -0.0350  -47.9999
  6.620  -17.5110    2.6090  -17.5921    2.8175  -17.5343    2.6960  -17.5457    2.5571  -17.3880    2.6930  -17.4073    2.8486   -0.0302  -47.9999
  6.630  -17.4221    2.5791  -17.5028    2.7859  -17.4452    2.6664  -17.4569    2.5282  -17.3002    2.6633  -17.3198    2.8165   -0.0260  -47.9999
  6.640  -17.3340    2.5498  -17.4142    2.7548  -17.3569    2.6373  -17.3689    2.4998  -17.2132    2.6343  -17.2331    2.7850   -0.0224  -48.0000
  6.650  -17.2467    2.5211  -17.3264    2.7243  -17.2693    2.6088  -17.2816    2.4720  -17.1268    2.6057  -17.1470    2.7540   -0.0193  -48.0000
  6.660  -17.1600    2.4928  -17.2393    2.6944  -17.1824    2.5807  -17.1950    2.4446  -17.0412    2.5777  -17.0616    2.7237   -0.0166  -48.0000
  6.670  -17.0741    2.4651  -17.1529    2.6650  -17.0963    2.5532  -17.1091    2.4178  -16.9563    2.5502  -16.9769    2.6939   -0.0142  -48.0000
  6.680  -16.9888    2.4379  -17.0673    2.6361  -17.0108    2.5262  -17.0239    2.3914  -16.8721    2.5231  -16.8929    2.6646   -0.0122  -48.0000
  6.690  -16.9043    2.4112  -16.9823    2.6078  -16.9261    2.4996  -16.9394    2.3655  -16.7886    2.4966  -16.8096    2.6359   -0.0104  -48.0000
  6.700  -16.8204    2.3850  -16.8980    2.5800  -16.8421    2.4736  -16.8556    2.3401  -16.7058    2.4705  -16.7269    2.6077   -0.0089  -48.0000
  6.710  -16.7373    2.3593  -16.8144    2.5526  -16.7587    2.4479  -16.7725    2.3151  -16.6236    2.4448  -16.6449    2.5800   -0.0076  -48.0000
  6.720  -16.6548    2.3340  -16.7315    2.5258  -16.6761    2.4228  -16.6901    2.2906  -16.5421    2.4196  -16.5636    2.5527   -0.0065  -48.0000
  6.730  -16.5730    2.3092  -16.6493    2.4994  -16.5941    2.3980  -16.6083    2.2665  -16.4613    2.3948  -16.4828    2.5260   -0.0055  -48.0000
  6.740  -16.4918    2.2848  -16.5677    2.4735  -16.5128    2.3737  -16.5271    2.2428  -16.3811    2.3705  -16.4027    2.4997   -0.0047  -48.0000
  6.750  -16.4113    2.2608  -16.4868    2.4480  -16.4321    2.3498  -16.4466    2.2195  -16.3015    2.3466  -16.3233    2.4738   -0.0040  -48.0000
  6.760  -16.3314    2.2372  -16.4065    2.4230  -16.3521    2.3263  -16.3668    2.1967  -16.2226    2.3230  -16.2444    2.4484   -0.0034  -48.0000
  6.770  -16.2522    2.2141  -16.3269    2.3984  -16.2727    2.3031  -16.2876    2.1742  -16.1442    2.2999  -16.1662    2.4235   -0.0029  -48.0000
  6.780  -16.1736    2.1914  -16.2479    2.3742  -16.1940    2.2804  -16.2090    2.1521  -16.0666    2.2771  -16.0886    2.3989   -0.0024  -48.0000
  6.790  -16.0956    2.1690  -16.1695    2.3504  -16.1158    2.2581  -16.1310    2.1303  -15.9895    2.2547  -16.0116    2.3748   -0.0020  -48.0000
  6.800  -16.0182    2.1470  -16.0917    2.3271  -16.0383    2.2361  -16.0537    2.1089  -15.9130    2.2327  -15.9351    2.3511   -0.0017  -48.0000
  6.810  -15.9414    2.1254  -16.0146    2.3041  -15.9614    2.2144  -15.9769    2.0879  -15.8371    2.2111  -15.8593    2.3277   -0.0015  -48.0000
  6.820  -15.8652    2.1041  -15.9380    2.2814  -15.8851    2.1931  -15.9007    2.0672  -15.7618    2.1898  -15.7840    2.3048   -0.0012  -48.0000
  6.830  -15.7897    2.0832  -15.8621    2.2592  -15.8094    2.1722  -15.8252    2.0469  -15.6871    2.1688  -15.7094    2.2822   -0.0010  -48.0000
  6.840  -15.7147    2.0627  -15.7867    2.2373  -15.7343    2.1516  -15.7502    2.0269  -15.6130    2.1482  -15.6352    2.2600   -0.0009  -48.0000
  6.850  -15.6402    2.0425  -15.7120    2.2158  -15.6598    2.1313  -15.6757    2.0072  -15.5394    2.1279  -15.5617    2.2382   -0.0007  -48.0000
  6.860  -15.5664    2.0226  -15.6377    2.1946  -15.5859    2.1114  -15.6019    1.9879  -15.4664    2.1079  -15.4887    2.2167   -0.0006  -48.0000
  6.870  -15.4931    2.0030  -15.5641    2.1738  -15.5125    2.0917  -15.5286    1.9688  -15.3939    2.0882  -15.4162    2.1955   -0.0005  -48.0000
  6.880  -15.4204    1.9837  -15.4910    2.1532  -15.4396    2.0724  -15.4559    1.9500  -15.3220    2.0688  -15.3443    2.1747   -0.0004  -48.0000
  6.890  -15.3482    1.9648  -15.4185    2.1330  -15.3674    2.0533  -15.3837    1.9316  -15.2507    2.0498  -15.2729    2.1542   -0.0004  -48.0000
  6.900  -15.2766    1.9461  -15.3465    2.1132  -15.2957    2.0346  -15.3120    1.9134  -15.1798    2.0310  -15.2021    2.1340   -0.0003  -48.0000
  6.910  -15.2055    1.9278  -15.2751    2.0936  -15.2245    2.0161  -15.2409    1.8955  -15.1095    2.0125  -15.1318    2.1141   -0.0002  -48.0000
  6.920  -15.1349    1.9097  -15.2042    2.0743  -15.1538    1.9979  -15.1704    1.8779  -15.0398    1.9943  -15.0620    2.0946   -0.0002  -48.0000
  6.930  -15.0649    1.8919  -15.1339    2.0553  -15.0837    1.9800  -15.1003    1.8606  -14.9705    1.9763  -14.9927    2.0753   -0.0002  -48.0000
  6.940  -14.9954    1.8744  -15.0640    2.0367  -15.0141    1.9624  -15.0308    1.8435  -14.9017    1.9587  -14.9239    2.0563   -0.0001  -48.0000
  6.950  -14.9264    1.8572  -14.9947    2.0183  -14.9450    1.9450  -14.9618    1.8267  -14.8335    1.9413  -14.8556    2.0377   -0.0001  -48.0000
  6.960  -14.8579    1.8402  -14.9259    2.0001  -14.8765    1.9279  -14.8932    1.8101  -14.7658    1.9241  -14.7878    2.0193   -0.0001  -48.0000
  6.970  -14.7899    1.8234  -14.8576    1.9823  -14.8084    1.9110  -14.8252    1.7938  -14.6985    1.9072  -14.7205    2.0011   -0.0001  -48.0000
  6.980  -14.7224    1.8070  -14.7898    1.9647  -14.7408    1.8944  -14.7577    1.7777  -14.6317    1.8906  -14.6537    1.9833   -0.0001  -48.0000
  6.990  -14.6554    1.7907  -14.7225    1.9474  -14.6738    1.8780  -14.6907    1.7619  -14.5655    1.8742  -14.5874    1.9657   -0.0001  -48.0000
  7.000  -14.5889    1.7748  -14.6557    1.9303  -14.6072    1.8619  -14.6241    1.7463  -14.4997    1.8580  -14.5215    1.9484   -0.0000  -48.0000
  7.010  -14.5228    1.7590  -14.5893    1.9135  -14.5411    1.8460  -14.5581    1.7309  -14.4343    1.8420  -14.4561    1.9313   -0.0000  -48.0000
  7.020  -14.4573    1.7435  -14.5235    1.8969  -14.4754    1.8303  -14.4925    1.7157  -14.3695    1.8263  -14.3912    1.9145   -0.0000  -48.0000
  7.030  -14.3922    1.7282  -14.4581    1.8805  -14.4103    1.8148  -14.4273    1.7008  -14.3051    1.8108  -14.3267    1.8979   -0.0000  -48.0000
  7.040  -14.3275    1.7132  -14.3932    1.8644  -14.3456    1.7996  -14.3627    1.6861  -14.2411    1.7956  -14.2627    1.8815   -0.0000  -48.0000
  7.050  -14.2634    1.6983  -14.3287    1.8486  -14.2814    1.7845  -14.2985    1.6716  -14.1776    1.7805  -14.1992    1.8654   -0.0000  -48.0000
  7.060  -14.1997    1.6837  -14.2647    1.8329  -14.2176    1.7697  -14.2347    1.6573  -14.1146    1.7657  -14.1361    1.8495   -0.0000  -48.0000
  7.070  -14.1364    1.6692  -14.2012    1.8175  -14.1542    1.7551  -14.1714    1.6432  -14.0520    1.7510  -14.0734    1.8339   -0.0000  -48.0000
  7.080  -14.0736    1.6550  -14.1381    1.8022  -14.0914    1.7407  -14.1085    1.6293  -13.9898    1.7366  -14.0111    1.8184   -0.0000  -48.0000
  7.090  -14.0112    1.6410  -14.0755    1.7872  -14.0289    1.7265  -14.0461    1.6156  -13.9281    1.7223  -13.9493    1.8032   -0.0000  -48.0000
  7.100  -13.9492    1.6272  -14.0132    1.7724  -13.9669    1.7125  -13.9841    1.6021  -13.8668    1.7083  -13.8879    1.7882   -0.0000  -48.0000
  7.110  -13.8877    1.6136  -13.9515    1.7579  -13.9053    1.6986  -13.9225    1.5888  -13.8059    1.6944  -13.8270    1.7734   -0.0000  -48.0000
  7.120  -13.8266    1.6001  -13.8901    1.7435  -13.8442    1.6850  -13.8614    1.5756  -13.7454    1.6807  -13.7664    1.7588   -0.0000  -48.0000
  7.130  -13.7659    1.5869  -13.8292    1.7293  -13.7834    1.6715  -13.8007    1.5626  -13.6853    1.6672  -13.7063    1.7444   -0.0000  -48.0000
  7.140  -13.7056    1.5738  -13.7687    1.7153  -13.7231    1.6582  -13.7404    1.5499  -13.6257    1.6539  -13.6465    1.7302   -0.0000  -48.0000
  7.150  -13.6458    1.5609  -13.7086    1.7014  -13.6632    1.6451  -13.6804    1.5373  -13.5664    1.6408  -13.5872    1.7162   -0.0000  -48.0000
  7.160  -13.5863    1.5482  -13.6489    1.6878  -13.6037    1.6322  -13.6209    1.5248  -13.5076    1.6278  -13.5283    1.7023   -0.0000  -48.0000
  7.170  -13.5273    1.5356  -13.5896    1.6744  -13.5446    1.6194  -13.5619    1.5125  -13.4491    1.6151  -13.4697    1.6887   -0.0000  -48.0000
  7.180  -13.4686    1.5233  -13.5307    1.6611  -13.4859    1.6068  -13.5031    1.5004  -13.3911    1.6024  -13.4116    1.6752   -0.0000  -48.0000
  7.190  -13.4104    1.5111  -13.4722    1.6480  -13.4276    1.5944  -13.4448    1.4885  -13.3334    1.5900  -13.3538    1.6619   -0.0000  -48.0000
  7.200  -13.3525    1.4990  -13.4141    1.6351  -13.3697    1.5821  -13.3869    1.4767  -13.2761    1.5777  -13.2964    1.6488   -0.0000  -48.0000
  7.210  -13.2950    1.4871  -13.3564    1.6223  -13.3122    1.5700  -13.3294    1.4650  -13.2192    1.5655  -13.2394    1.6359   -0.0000  -48.0000
  7.220  -13.2379    1.4754  -13.2991    1.6097  -13.2550    1.5580  -13.2722    1.4536  -13.1627    1.5535  -13.1828    1.6231   -0.0000  -48.0000
  7.230  -13.1812    1.4638  -13.2422    1.5973  -13.1982    1.5462  -13.2154    1.4422  -13.1065    1.5417  -13.1265    1.6105   -0.0000  -48.0000
  7.240  -13.1248    1.4524  -13.1856    1.5850  -13.1418    1.5346  -13.1590    1.4310  -13.0507    1.5300  -13.0706    1.5981   -0.0000  -48.0000
  7.250  -13.0688    1.4411  -13.1294    1.5729  -13.0858    1.5231  -13.1030    1.4200  -12.9952    1.5185  -13.0151    1.5858   -0.0000  -48.0000
  7.260  -13.0132    1.4300  -13.0736    1.5610  -13.0301    1.5117  -13.0473    1.4091  -12.9402    1.5071  -12.9599    1.5737   -0.0000  -48.0000
  7.270  -12.9580    1.4190  -13.0181    1.5492  -12.9748    1.5005  -12.9920    1.3983  -12.8854    1.4959  -12.9051    1.5617   -0.0000  -48.0000
  7.280  -12.9030    1.4082  -12.9630    1.5375  -12.9199    1.4894  -12.9370    1.3877  -12.8311    1.4847  -12.8507    1.5499   -0.0000  -48.0000
  7.290  -12.8485    1.3975  -12.9083    1.5260  -12.8653    1.4784  -12.8824    1.3772  -12.7770    1.4738  -12.7965    1.5382   -0.0000  -48.0000
  7.300  -12.7943    1.3869  -12.8539    1.5146  -12.8110    1.4676  -12.8281    1.3668  -12.7234    1.4629  -12.7428    1.5267   -0.0000  -48.0000
  7.310  -12.7404    1.3765  -12.7998    1.5034  -12.7571    1.4569  -12.7742    1.3566  -12.6700    1.4522  -12.6893    1.5153   -0.0000  -48.0000
  7.320  -12.6869    1.3662  -12.7461    1.4923  -12.7036    1.4464  -12.7207    1.3465  -12.6170    1.4417  -12.6362    1.5040   -0.0000  -48.0000
  7.330  -12.6337    1.3560  -12.6928    1.4813  -12.6504    1.4360  -12.6674    1.3365  -12.5643    1.4312  -12.5835    1.4929   -0.0000  -48.0000
  7.340  -12.5809    1.3459  -12.6398    1.4705  -12.5975    1.4257  -12.6145    1.3267  -12.5120    1.4209  -12.5310    1.4820   -0.0000  -48.0000
  7.350  -12.5284    1.3360  -12.5871    1.4598  -12.5449    1.4155  -12.5619    1.3169  -12.4600    1.4107  -12.4789    1.4711   -0.0000  -48.0000
  7.360  -12.4762    1.3262  -12.5347    1.4493  -12.4927    1.4055  -12.5097    1.3073  -12.4083    1.4006  -12.4271    1.4604   -0.0000  -48.0000
  7.370  -12.4243    1.3165  -12.4827    1.4389  -12.4408    1.3955  -12.4578    1.2978  -12.3569    1.3907  -12.3757    1.4499   -0.0000  -48.0000
  7.380  -12.3728    1.3070  -12.4310    1.4286  -12.3892    1.3857  -12.4062    1.2885  -12.3059    1.3808  -12.3245    1.4394   -0.0000  -48.0000
  7.390  -12.3216    1.2975  -12.3796    1.4184  -12.3380    1.3760  -12.3549    1.2792  -12.2551    1.3711  -12.2737    1.4291   -0.0000  -48.0000
  7.400  -12.2707    1.2882  -12.3286    1.4083  -12.2870    1.3664  -12.3039    1.2700  -12.2047    1.3615  -12.2232    1.4189   -0.0000  -48.0000
  7.410  -12.2201    1.2790  -12.2778    1.3984  -12.2364    1.3570  -12.2533    1.2610  -12.1546    1.3520  -12.1729    1.4089   -0.0000  -48.0000
  7.420  -12.1698    1.2699  -12.2274    1.3886  -12.1861    1.3476  -12.2029    1.2520  -12.1047    1.3427  -12.1230    1.3989   -0.0000  -48.0000
  7.430  -12.1198    1.2609  -12.1772    1.3788  -12.1360    1.3384  -12.1529    1.2432  -12.0552    1.3334  -12.0734    1.3891   -0.0000  -48.0000
  7.440  -12.0701    1.2520  -12.1274    1.3693  -12.0863    1.3292  -12.1031    1.2345  -12.0060    1.3242  -12.0241    1.3794   -0.0000  -48.0000
  7.450  -12.0207    1.2432  -12.0779    1.3598  -12.0369    1.3202  -12.0537    1.2259  -11.9571    1.3152  -11.9751    1.3698   -0.0000  -48.0000
  7.460  -11.9716    1.2345  -12.0287    1.3504  -11.9878    1.3112  -12.0045    1.2174  -11.9084    1.3062  -11.9264    1.3603   -0.0000  -48.0000
  7.470  -11.9229    1.2259  -11.9798    1.3411  -11.9389    1.3024  -11.9557    1.2089  -11.8601    1.2974  -11.8779    1.3509   -0.0000  -48.0000
  7.480  -11.8743    1.2175  -11.9311    1.3320  -11.8904    1.2937  -11.9071    1.2006  -11.8120    1.2886  -11.8298    1.3416   -0.0000  -48.0000
  7.490  -11.8261    1.2091  -11.8828    1.3229  -11.8421    1.2851  -11.8588    1.1924  -11.7642    1.2800  -11.7819    1.3324   -0.0000  -48.0000
  7.500  -11.7782    1.2008  -11.8347    1.3140  -11.7942    1.2765  -11.8109    1.1843  -11.7167    1.2714  -11.7343    1.3234   -0.0000  -48.0000
  7.510  -11.7305    1.1926  -11.7870    1.3051  -11.7465    1.2681  -11.7631    1.1762  -11.6695    1.2630  -11.6870    1.3144   -0.0000  -48.0000
  7.520  -11.6832    1.1845  -11.7395    1.2964  -11.6991    1.2598  -11.7157    1.1683  -11.6226    1.2546  -11.6400    1.3056   -0.0000  -48.0000
  7.530  -11.6361    1.1765  -11.6923    1.2878  -11.6519    1.2515  -11.6685    1.1604  -11.5759    1.2463  -11.5932    1.2968   -0.0000  -48.0000
  7.540  -11.5892    1.1686  -11.6453    1.2792  -11.6051    1.2434  -11.6217    1.1527  -11.5295    1.2382  -11.5467    1.2882   -0.0000  -48.0000
  7.550  -11.5427    1.1608  -11.5987    1.2708  -11.5585    1.2353  -11.5750    1.1450  -11.4834    1.2301  -11.5005    1.2796   -0.0000  -48.0000
  7.560  -11.4964    1.1531  -11.5523    1.2624  -11.5122    1.2273  -11.5287    1.1374  -11.4375    1.2221  -11.4545    1.2712   -0.0000  -48.0000
  7.570  -11.4504    1.1455  -11.5062    1.2541  -11.4661    1.2194  -11.4826    1.1299  -11.3919    1.2142  -11.4088    1.2628   -0.0000  -48.0000
  7.580  -11.4046    1.1379  -11.4603    1.2460  -11.4203    1.2116  -11.4368    1.1225  -11.3465    1.2064  -11.3634    1.2545   -0.0000  -48.0000
  7.590  -11.3591    1.1305  -11.4147    1.2379  -11.3748    1.2039  -11.3912    1.1152  -11.3014    1.1986  -11.3182    1.2463   -0.0000  -48.0000
  7.600  -11.3138    1.1231  -11.3694    1.2299  -11.3295    1.1963  -11.3459    1.1079  -11.2566    1.1910  -11.2732    1.2383   -0.0000  -48.0000
  7.610  -11.2689    1.1158  -11.3243    1.2220  -11.2844    1.1888  -11.3009    1.1008  -11.2120    1.1834  -11.2286    1.2303   -0.0000  -48.0000
  7.620  -11.2241    1.1086  -11.2795    1.2142  -11.2397    1.1813  -11.2561    1.0937  -11.1676    1.1759  -11.1841    1.2224   -0.0000  -48.0000
  7.630  -11.1796    1.1015  -11.2349    1.2064  -11.1951    1.1739  -11.2115    1.0867  -11.1235    1.1686  -11.1399    1.2145   -0.0000  -48.0000
  7.640  -11.1354    1.0944  -11.1906    1.1988  -11.1508    1.1666  -11.1672    1.0797  -11.0796    1.1612  -11.0960    1.2068   -0.0000  -48.0000
  7.650  -11.0914    1.0875  -11.1465    1.1912  -11.1068    1.1594  -11.1231    1.0729  -11.0360    1.1540  -11.0523    1.1991   -0.0000  -48.0000
  7.660  -11.0476    1.0806  -11.1027    1.1837  -11.0630    1.1523  -11.0793    1.0661  -10.9926    1.1468  -11.0088    1.1916   -0.0000  -48.0000
  7.670  -11.0041    1.0738  -11.0591    1.1763  -11.0194    1.1452  -11.0357    1.0594  -10.9495    1.1398  -10.9656    1.1841   -0.0000  -48.0000
  7.680  -10.9608    1.0670  -11.0158    1.1690  -10.9761    1.1382  -10.9924    1.0528  -10.9066    1.1327  -10.9226    1.1767   -0.0000  -48.0000
  7.690  -10.9177    1.0604  -10.9727    1.1618  -10.9330    1.1313  -10.9493    1.0462  -10.8639    1.1258  -10.8798    1.1694   -0.0000  -48.0000
  7.700  -10.8749    1.0538  -10.9298    1.1546  -10.8902    1.1245  -10.9064    1.0398  -10.8215    1.1190  -10.8373    1.1621   -0.0000  -48.0000
  7.710  -10.8323    1.0473  -10.8871    1.1475  -10.8475    1.1177  -10.8638    1.0334  -10.7792    1.1122  -10.7950    1.1550   -0.0000  -48.0000
  7.720  -10.7899    1.0408  -10.8447    1.1405  -10.8051    1.1110  -10.8213    1.0270  -10.7372    1.1055  -10.7529    1.1479   -0.0000  -48.0000
  7.730  -10.7478    1.0344  -10.8026    1.1335  -10.7630    1.1044  -10.7791    1.0208  -10.6955    1.0988  -10.7110    1.1409   -0.0000  -48.0000
  7.740  -10.7059    1.0281  -10.7606    1.1267  -10.7210    1.0979  -10.7372    1.0146  -10.6539    1.0923  -10.6694    1.1339   -0.0000  -48.0000
  7.750  -10.6642    1.0219  -10.7189    1.1199  -10.6793    1.0914  -10.6954    1.0084  -10.6126    1.0858  -10.6280    1.1271   -0.0000  -48.0000
  7.760  -10.6227    1.0157  -10.6774    1.1132  -10.6378    1.0850  -10.6539    1.0024  -10.5714    1.0793  -10.5868    1.1203   -0.0000  -48.0000
  7.770  -10.5814    1.0096  -10.6361    1.1065  -10.5964    1.0786  -10.6126    0.9964  -10.5305    1.0730  -10.5458    1.1136   -0.0000  -48.0000
  7.780  -10.5403    1.0036  -10.5950    1.0999  -10.5554    1.0724  -10.5715    0.9904  -10.4898    1.0667  -10.5050    1.1069   -0.0000  -48.0000
  7.790  -10.4995    0.9977  -10.5541    1.0934  -10.5145    1.0662  -10.5306    0.9846  -10.4493    1.0604  -10.4644    1.1004   -0.0000  -48.0000
  7.800  -10.4589    0.9918  -10.5135    1.0870  -10.4738    1.0600  -10.4899    0.9788  -10.4090    1.0543  -10.4241    1.0939   -0.0000  -48.0000
  7.810  -10.4184    0.9859  -10.4731    1.0806  -10.4333    1.0539  -10.4494    0.9730  -10.3690    1.0482  -10.3839    1.0874   -0.0000  -48.0000
  7.820  -10.3782    0.9802  -10.4328    1.0743  -10.3931    1.0479  -10.4091    0.9673  -10.3291    1.0422  -10.3440    1.0811   -0.0000  -48.0000
  7.830  -10.3382    0.9744  -10.3928    1.0681  -10.3530    1.0420  -10.3691    0.9617  -10.2894    1.0362  -10.3042    1.0748   -0.0000  -48.0000
  7.840  -10.2984    0.9688  -10.3530    1.0619  -10.3132    1.0361  -10.3292    0.9562  -10.2499    1.0303  -10.2647    1.0686   -0.0000  -48.0000
  7.850  -10.2587    0.9632  -10.3134    1.0558  -10.2735    1.0303  -10.2895    0.9507  -10.2106    1.0244  -10.2253    1.0624   -0.0000  -48.0000
  7.860  -10.2193    0.9577  -10.2740    1.0497  -10.2341    1.0245  -10.2501    0.9452  -10.1715    1.0187  -10.1861    1.0563   -0.0000  -48.0000
  7.870  -10.1801    0.9522  -10.2348    1.0437  -10.1948    1.0188  -10.2108    0.9399  -10.1326    1.0129  -10.1472    1.0503   -0.0000  -48.0000
  7.880  -10.1410    0.9468  -10.1958    1.0378  -10.1557    1.0132  -10.1717    0.9346  -10.0939    1.0073  -10.1084    1.0443   -0.0000  -48.0000
  7.890  -10.1022    0.9415  -10.1570    1.0320  -10.1168    1.0076  -10.1328    0.9293  -10.0554    1.0017  -10.0698    1.0384   -0.0000  -48.0000
  7.900  -10.0635    0.9362  -10.1183    1.0262  -10.0781    1.0021  -10.0941    0.9241  -10.0171    0.9961  -10.0314    1.0326   -0.0000  -48.0000
  7.910  -10.0250    0.9310  -10.0799    1.0204  -10.0396    0.9966  -10.0556    0.9190   -9.9789    0.9906   -9.9932    1.0268   -0.0000  -48.0000
  7.920   -9.9867    0.9258  -10.0416    1.0147  -10.0013    0.9912  -10.0173    0.9139   -9.9410    0.9852   -9.9551    1.0211   -0.0000  -48.0000
  7.930   -9.9486    0.9207  -10.0036    1.0091   -9.9631    0.9859   -9.9791    0.9088   -9.9032    0.9799   -9.9173    1.0154   -0.0000  -48.0000
  7.940   -9.9107    0.9157   -9.9657    1.0036   -9.9251    0.9806   -9.9411    0.9039   -9.8656    0.9745   -9.8796    1.0098   -0.0000  -48.0000
  7.950   -9.8729    0.9107   -9.9280    0.9981   -9.8874    0.9754   -9.9034    0.8990   -9.8281    0.9693   -9.8421    1.0043   -0.0000  -48.0000
  7.960   -9.8353    0.9057   -9.8905    0.9926   -9.8497    0.9702   -9.8657    0.8941   -9.7909    0.9641   -9.8048    0.9988   -0.0000  -48.0000
  7.970   -9.7979    0.9009   -9.8532    0.9872   -9.8123    0.9651   -9.8283    0.8893   -9.7538    0.9590   -9.7676    0.9934   -0.0000  -48.0000
  7.980   -9.7607    0.8960   -9.8160    0.9819   -9.7750    0.9601   -9.7910    0.8845   -9.7169    0.9539   -9.7306    0.9881   -0.0000  -48.0000
  7.990   -9.7236    0.8913   -9.7790    0.9766   -9.7379    0.9551   -9.7539    0.8798   -9.6801    0.9488   -9.6938    0.9828   -0.0000  -48.0000
  8.000   -9.6867    0.8865   -9.7422    0.9714   -9.7010    0.9501   -9.7170    0.8752   -9.6435    0.9439   -9.6572    0.9775   -0.0000  -48.0000
  8.010   -9.6500    0.8819   -9.7056    0.9662   -9.6642    0.9452   -9.6802    0.8706   -9.6071    0.9389   -9.6207    0.9723   -0.0000  -48.0000
  8.020   -9.6134    0.8773   -9.6691    0.9611   -9.6276    0.9404   -9.6436    0.8660   -9.5709    0.9341   -9.5844    0.9672   -0.0000  -48.0000
  8.030   -9.5770    0.8727   -9.6328    0.9560   -9.5912    0.9356   -9.6072    0.8615   -9.5348    0.9292   -9.5482    0.9621   -0.0000  -48.0000
  8.040   -9.5407    0.8682   -9.5967    0.9510   -9.5549    0.9309   -9.5709    0.8571   -9.4988    0.9245   -9.5122    0.9571   -0.0000  -48.0000
  8.050   -9.5046    0.8637   -9.5607    0.9461   -9.5187    0.9262   -9.5348    0.8527   -9.4630    0.9198   -9.4764    0.9522   -0.0000  -48.0000
  8.060   -9.4687    0.8593   -9.5249    0.9412   -9.4828    0.9216   -9.4989    0.8484   -9.4274    0.9151   -9.4407    0.9473   -0.0000  -48.0000
  8.070   -9.4329    0.8550   -9.4893    0.9363   -9.4469    0.9170   -9.4631    0.8441   -9.3919    0.9105   -9.4051    0.9424   -0.0000  -48.0000
  8.080   -9.3973    0.8507   -9.4538    0.9316   -9.4113    0.9125   -9.4274    0.8399   -9.3566    0.9060   -9.3697    0.9376   -0.0001  -48.0000
  8.090   -9.3618    0.8464   -9.4184    0.9268   -9.3757    0.9080   -9.3919    0.8357   -9.3215    0.9014   -9.3345    0.9329   -0.0001  -48.0000
  8.100   -9.3264    0.8422   -9.3833    0.9221   -9.3404    0.9036   -9.3566    0.8315   -9.2864    0.8970   -9.2994    0.9282   -0.0001  -48.0000
  8.110   -9.2912    0.8381   -9.3482    0.9175   -9.3051    0.8992   -9.3214    0.8275   -9.2515    0.8926   -9.2645    0.9236   -0.0001  -48.0000
  8.120   -9.2562    0.8340   -9.3134    0.9129   -9.2701    0.8949   -9.2863    0.8234   -9.2168    0.8882   -9.2297    0.9190   -0.0002  -48.0000
  8.130   -9.2213    0.8300   -9.2786    0.9083   -9.2351    0.8907   -9.2514    0.8194   -9.1822    0.8839   -9.1950    0.9144   -0.0002  -48.0000
  8.140   -9.1865    0.8260   -9.2441    0.9039   -9.2003    0.8865   -9.2166    0.8155   -9.1478    0.8797   -9.1605    0.9100   -0.0003  -48.0000
  8.150   -9.1519    0.8220   -9.2096    0.8994   -9.1656    0.8823   -9.1820    0.8116   -9.1134    0.8755   -9.1261    0.9056   -0.0003  -48.0000
  8.160   -9.1174    0.8181   -9.1753    0.8950   -9.1311    0.8782   -9.1475    0.8078   -9.0793    0.8713   -9.0919    0.9012   -0.0004  -48.0000
  8.170   -9.0830    0.8143   -9.1412    0.8907   -9.0967    0.8742   -9.1131    0.8040   -9.0452    0.8672   -9.0578    0.8969   -0.0005  -48.0000
  8.180   -9.0488    0.8105   -9.1072    0.8864   -9.0624    0.8702   -9.0789    0.8003   -9.0113    0.8632   -9.0238    0.8926   -0.0007  -48.0000
  8.190   -9.0147    0.8068   -9.0733    0.8822   -9.0283    0.8662   -9.0448    0.7966   -8.9775    0.8592   -8.9900    0.8884   -0.0009  -48.0000
  8.200   -8.9807    0.8031   -9.0396    0.8780   -8.9943    0.8623   -9.0108    0.7929   -8.9438    0.8552   -8.9562    0.8842   -0.0011  -48.0000
  8.210   -8.9468    0.7994   -9.0060    0.8738   -8.9604    0.8585   -8.9770    0.7893   -8.9103    0.8513   -8.9226    0.8801   -0.0014  -48.0000
  8.220   -8.9131    0.7959   -8.9725    0.8697   -8.9266    0.8547   -8.9433    0.7858   -8.8769    0.8475   -8.8892    0.8761   -0.0017  -48.0000
  8.230   -8.8795    0.7923   -8.9392    0.8657   -8.8930    0.8509   -8.9097    0.7823   -8.8436    0.8437   -8.8558    0.8721   -0.0021  -48.0000
  8.240   -8.8460    0.7888   -8.9060    0.8617   -8.8595    0.8472   -8.8762    0.7789   -8.8104    0.8399   -8.8226    0.8681   -0.0026  -48.0000
  8.250   -8.8126    0.7854   -8.8729    0.8577   -8.8261    0.8436   -8.8429    0.7755   -8.7774    0.8362   -8.7895    0.8642   -0.0033  -48.0000
  8.260   -8.7794    0.7820   -8.8400    0.8538   -8.7928    0.8400   -8.8096    0.7721   -8.7444    0.8326   -8.7565    0.8604   -0.0041  -48.0000
  8.270   -8.7462    0.7787   -8.8071    0.8500   -8.7596    0.8365   -8.7765    0.7688   -8.7116    0.8290   -8.7236    0.8566   -0.0051  -48.0000
  8.280   -8.7132    0.7754   -8.7744    0.8461   -8.7265    0.8330   -8.7435    0.7656   -8.6789    0.8254   -8.6909    0.8528   -0.0063  -48.0000
  8.290   -8.6803    0.7722   -8.7419    0.8424   -8.6936    0.8295   -8.7106    0.7624   -8.6463    0.8219   -8.6582    0.8491   -0.0078  -48.0000
  8.300   -8.6474    0.7690   -8.7094    0.8387   -8.6607    0.8262   -8.6778    0.7593   -8.6138    0.8185   -8.6256    0.8455   -0.0096  -48.0000
  8.310   -8.6147    0.7659   -8.6770    0.8350   -8.6279    0.8228   -8.6451    0.7562   -8.5814    0.8151   -8.5932    0.8419   -0.0118  -48.0000
  8.320   -8.5821    0.7628   -8.6448    0.8314   -8.5953    0.8196   -8.6126    0.7532   -8.5491    0.8118   -8.5608    0.8384   -0.0145  -48.0000
  8.330   -8.5496    0.7598   -8.6127    0.8278   -8.5627    0.8164   -8.5801    0.7502   -8.5169    0.8085   -8.5286    0.8349   -0.0177  -48.0000
  8.340   -8.5171    0.7568   -8.5807    0.8243   -8.5303    0.8132   -8.5477    0.7473   -8.4848    0.8052   -8.4965    0.8315   -0.0217  -48.0000
  8.350   -8.4848    0.7539   -8.5488    0.8208   -8.4979    0.8101   -8.5154    0.7444   -8.4528    0.8020   -8.4644    0.8281   -0.0265  -48.0001
  8.360   -8.4525    0.7510   -8.5170    0.8174   -8.4656    0.8070   -8.4832    0.7416   -8.4209    0.7989   -8.4324    0.8248   -0.0323  -48.0001
  8.370   -8.4204    0.7482   -8.4853    0.8141   -8.4334    0.8041   -8.4512    0.7388   -8.3890    0.7958   -8.4006    0.8216   -0.0393  -48.0001
  8.380   -8.3883    0.7455   -8.4537    0.8107   -8.4013    0.8011   -8.4192    0.7361   -8.3573    0.7928   -8.3688    0.8184   -0.0477  -48.0001
  8.390   -8.3563    0.7428   -8.4222    0.8075   -8.3693    0.7982   -8.3872    0.7334   -8.3257    0.7898   -8.3371    0.8152   -0.0578  -48.0001
  8.400   -8.3244    0.7402   -8.3908    0.8042   -8.3374    0.7954   -8.3554    0.7308   -8.2941    0.7869   -8.3055    0.8122   -0.0699  -48.0001
  8.410   -8.2926    0.7376   -8.3595    0.8011   -8.3055    0.7927   -8.3237    0.7283   -8.2626    0.7840   -8.2740    0.8091   -0.0844  -48.0002
  8.420   -8.2608    0.7351   -8.3282    0.7979   -8.2737    0.7900   -8.2920    0.7258   -8.2312    0.7812   -8.2425    0.8062   -0.1017  -48.0002
  8.430   -8.2292    0.7327   -8.2971    0.7949   -8.2420    0.7873   -8.2604    0.7234   -8.1999    0.7785   -8.2112    0.8033   -0.1223  -48.0003
  8.440   -8.1975    0.7303   -8.2661    0.7919   -8.2104    0.7848   -8.2289    0.7210   -8.1686    0.7758   -8.1799    0.8004   -0.1467  -48.0003
  8.450   -8.1660    0.7280   -8.2352    0.7889   -8.1788    0.7823   -8.1974    0.7187   -8.1375    0.7732   -8.1486    0.7976   -0.1758  -48.0004
  8.460   -8.1345    0.7257   -8.2043    0.7860   -8.1473    0.7798   -8.1661    0.7165   -8.1063    0.7706   -8.1175    0.7949   -0.2101  -48.0005
  8.470   -8.1031    0.7235   -8.1735    0.7831   -8.1158    0.7775   -8.1347    0.7143   -8.0753    0.7681   -8.0864    0.7922   -0.2507  -48.0005
  8.480   -8.0717    0.7214   -8.1428    0.7803   -8.0844    0.7752   -8.1035    0.7122   -8.0443    0.7657   -8.0553    0.7896   -0.2986  -48.0007
  8.490   -8.0404    0.7194   -8.1122    0.7776   -8.0531    0.7729   -8.0723    0.7101   -8.0133    0.7633   -8.0243    0.7871   -0.3548  -48.0008
  8.500   -8.0091    0.7174   -8.0817    0.7749   -8.0218    0.7708   -8.0412    0.7081   -7.9825    0.7610   -7.9934    0.7847   -0.4209  -48.0009
  8.510   -7.9779    0.7155   -8.0512    0.7722   -7.9905    0.7687   -8.0101    0.7062   -7.9516    0.7588   -7.9626    0.7823   -0.4984  -48.0011
  8.520   -7.9468    0.7136   -8.0208    0.7696   -7.9593    0.7667   -7.9791    0.7044   -7.9209    0.7566   -7.9317    0.7800   -0.5889  -48.0013
  8.530   -7.9156    0.7119   -7.9904    0.7671   -7.9281    0.7647   -7.9481    0.7026   -7.8901    0.7545   -7.9010    0.7777   -0.6946  -48.0016
  8.540   -7.8845    0.7102   -7.9602    0.7647   -7.8970    0.7629   -7.9171    0.7009   -7.8594    0.7525   -7.8702    0.7755   -0.8176  -48.0019
  8.550   -7.8535    0.7086   -7.9300    0.7623   -7.8659    0.7611   -7.8862    0.6993   -7.8288    0.7505   -7.8395    0.7734   -0.9605  -48.0022
  8.560   -7.8224    0.7071   -7.8998    0.7599   -7.8348    0.7594   -7.8554    0.6978   -7.7981    0.7486   -7.8089    0.7714   -1.1262  -48.0027
  8.570   -7.7914    0.7056   -7.8697    0.7576   -7.8038    0.7578   -7.8245    0.6964   -7.7675    0.7468   -7.7782    0.7695   -1.3181  -48.0031
  8.580   -7.7604    0.7043   -7.8397    0.7554   -7.7728    0.7563   -7.7937    0.6950   -7.7370    0.7451   -7.7476    0.7676   -1.5396  -48.0037
  8.590   -7.7294    0.7030   -7.8097    0.7533   -7.7418    0.7549   -7.7630    0.6937   -7.7064    0.7435   -7.7171    0.7658   -1.7949  -48.0044
  8.600   -7.6985    0.7019   -7.7797    0.7512   -7.7108    0.7535   -7.7322    0.6925   -7.6759    0.7419   -7.6865    0.7642   -2.0887  -48.0051
  8.610   -7.6675    0.7008   -7.7498    0.7492   -7.6798    0.7523   -7.7015    0.6914   -7.6454    0.7405   -7.6559    0.7626   -2.4259  -48.0060
  8.620   -7.6366    0.6999   -7.7200    0.7472   -7.6488    0.7512   -7.6707    0.6905   -7.6149    0.7391   -7.6254    0.7611   -2.8123  -48.0071
  8.630   -7.6056    0.6990   -7.6901    0.7454   -7.6178    0.7502   -7.6400    0.6896   -7.5844    0.7379   -7.5949    0.7597   -3.2542  -48.0083
  8.640   -7.5746    0.6983   -7.6603    0.7436   -7.5868    0.7493   -7.6093    0.6888   -7.5539    0.7367   -7.5644    0.7584   -3.7586  -48.0096
  8.650   -7.5437    0.6977   -7.6306    0.7418   -7.5558    0.7485   -7.5786    0.6881   -7.5234    0.7356   -7.5338    0.7572   -4.3335  -48.0112
  8.660   -7.5127    0.6972   -7.6008    0.7402   -7.5247    0.7479   -7.5479    0.6875   -7.4929    0.7347   -7.5033    0.7561   -4.9874  -48.0131
  8.670   -7.4816    0.6968   -7.5711    0.7386   -7.4937    0.7473   -7.5171    0.6871   -7.4624    0.7338   -7.4727    0.7551   -5.7299  -48.0152
  8.680   -7.4506    0.6965   -7.5414    0.7372   -7.4626    0.7469   -7.4864    0.6868   -7.4318    0.7331   -7.4422    0.7543   -6.5717  -48.0176
  8.690   -7.4195    0.6964   -7.5118    0.7358   -7.4315    0.7466   -7.4556    0.6866   -7.4013    0.7325   -7.4116    0.7535   -7.5246  -48.0204
  8.700   -7.3884    0.6965   -7.4821    0.7345   -7.4003    0.7465   -7.4248    0.6865   -7.3707    0.7320   -7.3809    0.7529   -8.6015  -48.0235
  8.710   -7.3572    0.6966   -7.4524    0.7333   -7.3691    0.7465   -7.3940    0.6866   -7.3400    0.7316   -7.3503    0.7524   -9.8168  -48.0271
  8.720   -7.3259    0.6970   -7.4228    0.7321   -7.3379    0.7467   -7.3631    0.6868   -7.3094    0.7314   -7.3196    0.7521  -11.1865  -48.0312
  8.730   -7.2946    0.6975   -7.3931    0.7311   -7.3065    0.7471   -7.3322    0.6872   -7.2786    0.7314   -7.2888    0.7519  -12.7280  -48.0359
  8.740   -7.2633    0.6981   -7.3634    0.7302   -7.2751    0.7476   -7.3012    0.6877   -7.2479    0.7314   -7.2580    0.7519  -14.4608  -48.0412
  8.750   -7.2318    0.6990   -7.3338    0.7294   -7.2437    0.7483   -7.2702    0.6884   -7.2170    0.7317   -7.2271    0.7520  -16.4061  -48.0473
  8.760   -7.2003    0.7000   -7.3041    0.7287   -7.2121    0.7492   -7.2391    0.6893   -7.1861    0.7321   -7.1962    0.7523  -18.5875  -48.0541
  8.770   -7.1687    0.7013   -7.2743    0.7281   -7.1805    0.7504   -7.2080    0.6904   -7.1551    0.7327   -7.1652    0.7528  -21.0307  -48.0618
  8.780   -7.1370    0.7028   -7.2446    0.7277   -7.1487    0.7517   -7.1767    0.6917   -7.1240    0.7335   -7.1341    0.7534  -23.7640  -48.0705
  8.790   -7.1051    0.7044   -7.2148    0.7274   -7.1169    0.7532   -7.1454    0.6932   -7.0928    0.7344   -7.1029    0.7543  -26.8181  -48.0804
  8.800   -7.0732    0.7064   -7.1850    0.7272   -7.0849    0.7550   -7.1140    0.6949   -7.0616    0.7356   -7.0716    0.7554  -30.2267  -48.0915
  8.810   -7.0411    0.7086   -7.1551    0.7271   -7.0528    0.7571   -7.0825    0.6968   -7.0302    0.7370   -7.0402    0.7567  -34.0260  -48.1040
  8.820   -7.0089    0.7110   -7.1252    0.7272   -7.0205    0.7594   -7.0508    0.6990   -6.9987    0.7386   -7.0086    0.7582  -38.2551  -48.1181
  8.830   -6.9765    0.7137   -7.0953    0.7274   -6.9882    0.7621   -7.0191    0.7015   -6.9670    0.7405   -6.9770    0.7600  -42.9558  -48.1339
  8.840   -6.9440    0.7168   -7.0652    0.7278   -6.9556    0.7650   -6.9872    0.7042   -6.9353    0.7427   -6.9452    0.7620  -48.1722  -48.1516
  8.850   -6.9113    0.7202   -7.0351    0.7284   -6.9229    0.7683   -6.9552    0.7073   -6.9034    0.7451   -6.9133    0.7643  -53.9510  -48.1714
  8.860   -6.8785    0.7239   -7.0050    0.7291   -6.8901    0.7719   -6.9231    0.7106   -6.8713    0.7478   -6.8812    0.7669  -60.3406  -48.1936
  8.870   -6.8454    0.7280   -6.9747    0.7300   -6.8570    0.7759   -6.8908    0.7143   -6.8390    0.7509   -6.8489    0.7699  -67.3906  -48.2183
  8.880   -6.8122    0.7325   -6.9444    0.7311   -6.8238    0.7802   -6.8583    0.7184   -6.8066    0.7542   -6.8165    0.7731  -75.1516  -48.2459
  8.890   -6.7787    0.7374   -6.9139    0.7325   -6.7903    0.7851   -6.8257    0.7228   -6.7740    0.7580   -6.7839    0.7768  -83.6736  -48.2767
  8.900   -6.7450    0.7427   -6.8833    0.7340   -6.7566    0.7903   -6.7929    0.7277   -6.7412    0.7621   -6.7511    0.7808  -93.0056  -48.3109
  8.910   -6.7111    0.7486   -6.8527    0.7358   -6.7227    0.7961   -6.7599    0.7330   -6.7082    0.7667   -6.7180    0.7852 -103.1944  -48.3488
  8.920   -6.6770    0.7550   -6.8219    0.7378   -6.6886    0.8024   -6.7267    0.7387   -6.6749    0.7717   -6.6848    0.7901 -114.2830  -48.3908
  8.930   -6.6426    0.7619   -6.7909    0.7401   -6.6542    0.8093   -6.6933    0.7450   -6.6415    0.7771   -6.6513    0.7955 -126.3099  -48.4372
  8.940   -6.6079    0.7695   -6.7599    0.7426   -6.6195    0.8168   -6.6597    0.7519   -6.6078    0.7831   -6.6176    0.8014 -139.3070  -48.4884
  8.950   -6.5729    0.7777   -6.7286    0.7455   -6.5846    0.8249   -6.6258    0.7593   -6.5738    0.7896   -6.5836    0.8078 -153.2991  -48.5447
  8.960   -6.5377    0.7866   -6.6972    0.7486   -6.5494    0.8338   -6.5918    0.7673   -6.5395    0.7968   -6.5494    0.8149 -168.3021  -48.6066
  8.970   -6.5022    0.7963   -6.6657    0.7521   -6.5140    0.8435   -6.5575    0.7761   -6.5050    0.8046   -6.5149    0.8226 -184.3222  -48.6743
  8.980   -6.4664    0.8068   -6.6339    0.7560   -6.4782    0.8540   -6.5229    0.7856   -6.4702    0.8131   -6.4801    0.8310 -201.3554  -48.7483
  8.990   -6.4303    0.8183   -6.6020    0.7602   -6.4422    0.8654   -6.4882    0.7959   -6.4352    0.8223   -6.4450    0.8401 -219.3865  -48.8289
  9.000   -6.3938    0.8307   -6.5698    0.7648   -6.4059    0.8777   -6.4532    0.8070   -6.3998    0.8324   -6.4096    0.8501 -238.3896  -48.9166
  9.010   -6.3571    0.8441   -6.5375    0.7699   -6.3693    0.8912   -6.4180    0.8191   -6.3641    0.8433   -6.3739    0.8609 -258.3284  -49.0115
  9.020   -6.3201    0.8588   -6.5049    0.7754   -6.3324    0.9058   -6.3825    0.8322   -6.3281    0.8553   -6.3380    0.8728 -279.1574  -49.1141
  9.030   -6.2828    0.8747   -6.4721    0.7814   -6.2953    0.9217   -6.3469    0.8464   -6.2918    0.8682   -6.3017    0.8857 -300.8228  -49.2246
  9.040   -6.2453    0.8919   -6.4390    0.7880   -6.2579    0.9390   -6.3110    0.8618   -6.2553    0.8824   -6.2652    0.8997 -323.2652  -49.3434
  9.050   -6.2075    0.9107   -6.4057    0.7951   -6.2203    0.9577   -6.2750    0.8785   -6.2184    0.8977   -6.2284    0.9150 -346.4217  -49.4707
  9.060   -6.1695    0.9310   -6.3722    0.8029   -6.1826    0.9781   -6.2389    0.8966   -6.1814    0.9145   -6.1913    0.9316 -370.2285  -49.6068
  9.070   -6.1313    0.9532   -6.3383    0.8113   -6.1447    1.0003   -6.2027    0.9162   -6.1441    0.9327   -6.1540    0.9497 -394.6241  -49.7518
  9.080   -6.0931    0.9773   -6.3042    0.8204   -6.1068    1.0244   -6.1664    0.9375   -6.1066    0.9525   -6.1166    0.9695 -419.5517  -49.9060
  9.090   -6.0548    1.0035   -6.2698    0.8304   -6.0690    1.0507   -6.1303    0.9606   -6.0689    0.9741   -6.0790    0.9910 -444.9625  -50.0695
  9.100   -6.0167    1.0321   -6.2350    0.8411   -6.0313    1.0792   -6.0942    0.9857   -6.0313    0.9977   -6.0414    1.0144 -470.8168  -50.2425
  9.110   -5.9788    1.0631   -6.2000    0.8528   -5.9940    1.1102   -6.0585    1.0129   -5.9937    1.0233   -6.0038    1.0400 -497.0865  -50.4252
  9.120   -5.9413    1.0969   -6.1647    0.8655   -5.9571    1.1440   -6.0231    1.0423   -5.9562    1.0513   -5.9664    1.0678 -523.7545  -50.6177
  9.130   -5.9044    1.1337   -6.1291    0.8793   -5.9209    1.1806   -5.9884    1.0743   -5.9190    1.0817   -5.9293    1.0982 -550.8146  -50.8201
  9.140   -5.8684    1.1737   -6.0933    0.8942   -5.8857    1.2204   -5.9544    1.1089   -5.8824    1.1148   -5.8927    1.1312 -578.2689  -51.0326
  9.150   -5.8336    1.2171   -6.0571    0.9104   -5.8517    1.2636   -5.9215    1.1464   -5.8464    1.1509   -5.8568    1.1671 -606.1250  -51.2554
  9.160   -5.8003    1.2643   -6.0207    0.9280   -5.8195    1.3105   -5.8900    1.1868   -5.8115    1.1901   -5.8219    1.2062 -634.3907  -51.4885
  9.170   -5.7691    1.3154   -5.9841    0.9471   -5.7893    1.3611   -5.8603    1.2305   -5.7779    1.2327   -5.7884    1.2487 -663.0684  -51.7322
  9.180   -5.7404    1.3707   -5.9473    0.9679   -5.7619    1.4157   -5.8328    1.2775   -5.7460    1.2788   -5.7566    1.2947 -692.1484  -51.9865
  9.190   -5.7150    1.4303   -5.9104    0.9904   -5.7378    1.4745   -5.8080    1.3279   -5.7164    1.3287   -5.7271    1.3445 -721.6013  -52.2517
  9.200   -5.6936    1.4943   -5.8734    1.0149   -5.7177    1.5374   -5.7865    1.3817   -5.6897    1.3825   -5.7005    1.3981 -751.3704  -52.5278
  9.210   -5.6770    1.5628   -5.8364    1.0416   -5.7026    1.6044   -5.7690    1.4390   -5.6664    1.4403   -5.6773    1.4557 -781.3650  -52.8150
  9.220   -5.6663    1.6355   -5.7996    1.0705   -5.6933    1.6753   -5.7562    1.4995   -5.6474    1.5020   -5.6584    1.5173 -811.4536  -53.1132
  9.230   -5.6626    1.7122   -5.7630    1.1020   -5.6909    1.7497   -5.7490    1.5629   -5.6335    1.5675   -5.6446    1.5826 -841.4598  -53.4224
  9.240   -5.6670    1.7923   -5.7269    1.1363   -5.6965    1.8271   -5.7480    1.6288   -5.6256    1.6364   -5.6369    1.6513 -871.1590  -53.7426
  9.250   -5.6807    1.8749   -5.6914    1.1735   -5.7110    1.9064   -5.7543    1.6963   -5.6248    1.7082   -5.6362    1.7229 -900.2782  -54.0734
  9.260   -5.7049    1.9588   -5.6569    1.2139   -5.7356    1.9865   -5.7684    1.7647   -5.6319    1.7822   -5.6435    1.7967 -928.4983  -54.4146
  9.270   -5.7406    2.0424   -5.6235    1.2579   -5.7710    2.0659   -5.7911    1.8327   -5.6479    1.8572   -5.6596    1.8714 -955.4590  -54.7658
  9.280   -5.7885    2.1238   -5.5917    1.3055   -5.8178    2.1427   -5.8227    1.8989   -5.6734    1.9318   -5.6852    1.9458 -980.7669  -55.1262
  9.290   -5.8490    2.2006   -5.5621    1.3571   -5.8760    2.2148   -5.8633    1.9616   -5.7090    2.0045   -5.7209    2.0181 *********  -55.4951
  9.300   -5.9217    2.2703   -5.5350    1.4128   -5.9454    2.2798   -5.9126    2.0193   -5.7545    2.0735   -5.7666    2.0867 *********  -55.8717
  9.310   -6.0060    2.3303   -5.5112    1.4729   -6.0251    2.3357   -5.9698    2.0703   -5.8098    2.1367   -5.8219    2.1496 *********  -56.2549
  9.320   -6.1000    2.3782   -5.4914    1.5374   -6.1134    2.3802   -6.0338    2.1130   -5.8738    2.1924   -5.8860    2.2048 *********  -56.6433
  9.330   -6.2016    2.4117   -5.4765    1.6064   -6.2082    2.4116   -6.1030    2.1463   -5.9451    2.2389   -5.9574    2.2509 *********  -57.0358
  9.340   -6.3078    2.4296   -5.4675    1.6797   -6.3070    2.4289   -6.1755    2.1694   -6.0221    2.2750   -6.0343    2.2865 *********  -57.4307
  9.350   -6.4155    2.4310   -5.4655    1.7570   -6.4071    2.4314   -6.2495    2.1822   -6.1025    2.3000   -6.1147    2.3110 *********  -57.8266
  9.360   -6.5213    2.4163   -5.4717    1.8377   -6.5056    2.4196   -6.3229    2.1850   -6.1844    2.3139   -6.1964    2.3244 *********  -58.2217
  9.370   -6.6224    2.3864   -5.4873    1.9211   -6.6001    2.3943   -6.3943    2.1785   -6.2658    2.3170   -6.2776    2.3270 *********  -58.6144
  9.380   -6.7161    2.3432   -5.5134    2.0059   -6.6885    2.3570   -6.4623    2.1639   -6.3450    2.3102   -6.3567    2.3197 *********  -59.0031
  9.390   -6.8005    2.2889   -5.5512    2.0906   -6.7692    2.3096   -6.5262    2.1423   -6.4210    2.2947   -6.4323    2.3037 *********  -59.3860
  9.400   -6.8746    2.2258   -5.6015    2.1732   -6.8412    2.2539   -6.5856    2.1150   -6.4929    2.2716   -6.5039    2.2801 *********  -59.7615
  9.410   -6.9378    2.1564   -5.6646    2.2514   -6.9040    2.1920   -6.6404    2.0831   -6.5604    2.2420   -6.5710    2.2502 -997.6903  -60.1281
  9.420   -6.9903    2.0829   -5.7406    2.3228   -6.9577    2.1255   -6.6908    2.0474   -6.6234    2.2069   -6.6336    2.2147 -969.6903  -60.4845
  9.430   -7.0325    2.0071   -5.8286    2.3845   -7.0024    2.0560   -6.7371    2.0085   -6.6820    2.1670   -6.6917    2.1745 -938.2378  -60.8293
  9.440   -7.0652    1.9305   -5.9272    2.4339   -7.0388    1.9848   -6.7797    1.9667   -6.7362    2.1225   -6.7454    2.1298 -903.7620  -61.1614
  9.450   -7.0893    1.8542   -6.0342    2.4687   -7.0672    1.9128   -6.8187    1.9222   -6.7860    2.0740   -6.7946    2.0811 -866.7323  -61.4799
  9.460   -7.1057    1.7791   -6.1468    2.4872   -7.0884    1.8407   -6.8541    1.8748   -6.8312    2.0214   -6.8393    2.0284 -827.6443  -61.7841
  9.470   -7.1152    1.7057   -6.2617    2.4884   -7.1028    1.7693   -6.8856    1.8248   -6.8714    1.9652   -6.8790    1.9722 -787.0063  -62.0733
  9.480   -7.1186    1.6344   -6.3755    2.4720   -7.1109    1.6989   -6.9131    1.7721   -6.9064    1.9057   -6.9134    1.9127 -745.3255  -62.3472
  9.490   -7.1166    1.5656   -6.4847    2.4390   -7.1134    1.6301   -6.9361    1.7172   -6.9356    1.8434   -6.9422    1.8505 -703.0960  -62.6056
  9.500   -7.1097    1.4993   -6.5865    2.3909   -7.1105    1.5631   -6.9544    1.6605   -6.9588    1.7790   -6.9650    1.7862 -660.7877  -62.8484
  9.510   -7.0986    1.4358   -6.6784    2.3298   -7.1028    1.4984   -6.9676    1.6025   -6.9757    1.7132   -6.9816    1.7206 -618.8367  -63.0758
  9.520   -7.0836    1.3752   -6.7589    2.2583   -7.0908    1.4362   -6.9757    1.5438   -6.9864    1.6470   -6.9920    1.6545 -577.6380  -63.2881
  9.530   -7.0653    1.3175   -6.8270    2.1792   -7.0749    1.3767   -6.9787    1.4851   -6.9911    1.5810   -6.9963    1.5888 -537.5400  -63.4857
  9.540   -7.0441    1.2629   -6.8824    2.0950   -7.0556    1.3201   -6.9769    1.4272   -6.9899    1.5162   -6.9949    1.5242 -498.8405  -63.6690
  9.550   -7.0204    1.2113   -6.9254    2.0080   -7.0334    1.2665   -6.9704    1.3705   -6.9835    1.4531   -6.9883    1.4613 -461.7850  -63.8387
  9.560   -6.9947    1.1627   -6.9568    1.9203   -7.0087    1.2160   -6.9597    1.3155   -6.9723    1.3923   -6.9769    1.4007 -426.5667  -63.9954
  9.570   -6.9672    1.1170   -6.9775    1.8335   -6.9819    1.1686   -6.9453    1.2626   -6.9569    1.3341   -6.9614    1.3427 -393.3277  -64.1400
  9.580   -6.9383    1.0742   -6.9887    1.7490   -6.9535    1.1241   -6.9276    1.2120   -6.9379    1.2789   -6.9423    1.2876 -362.1617  -64.2731
  9.590   -6.9084    1.0341   -6.9916    1.6675   -6.9238    1.0825   -6.9071    1.1641   -6.9158    1.2266   -6.9201    1.2355 -333.1174  -64.3955
  9.600   -6.8776    0.9967   -6.9874    1.5899   -6.8932    1.0437   -6.8842    1.1187   -6.8912    1.1775   -6.8955    1.1866 -306.2035  -64.5080
  9.610   -6.8462    0.9617   -6.9770    1.5163   -6.8618    1.0075   -6.8595    1.0759   -6.8646    1.1314   -6.8689    1.1407 -281.3932  -64.6114
  9.620   -6.8144    0.9291   -6.9617    1.4471   -6.8299    0.9737   -6.8331    1.0358   -6.8364    1.0884   -6.8406    1.0977 -258.6296  -64.7065
  9.630   -6.7824    0.8986   -6.9422    1.3822   -6.7977    0.9423   -6.8055    0.9981   -6.8070    1.0482   -6.8112    1.0576 -237.8312  -64.7939
  9.640   -6.7502    0.8702   -6.9193    1.3216   -6.7654    0.9129   -6.7770    0.9629   -6.7766    1.0107   -6.7808    1.0203 -218.8973  -64.8743
  9.650   -6.7181    0.8437   -6.8937    1.2651   -6.7330    0.8856   -6.7477    0.9300   -6.7456    0.9758   -6.7498    0.9855 -201.7131  -64.9484
  9.660   -6.6861    0.8189   -6.8660    1.2126   -6.7007    0.8601   -6.7180    0.8992   -6.7141    0.9434   -6.7183    0.9531 -186.1539  -65.0169
  9.670   -6.6543    0.7957   -6.8367    1.1638   -6.6687    0.8364   -6.6879    0.8704   -6.6824    0.9131   -6.6866    0.9229 -172.0903  -65.0801
  9.680   -6.6227    0.7741   -6.8062    1.1186   -6.6368    0.8141   -6.6577    0.8435   -6.6506    0.8850   -6.6548    0.8948 -159.3910  -65.1387
  9.690   -6.5914    0.7538   -6.7747    1.0766   -6.6052    0.7934   -6.6273    0.8184   -6.6188    0.8587   -6.6230    0.8686 -147.9266  -65.1930
  9.700   -6.5604    0.7348   -6.7427    1.0376   -6.5740    0.7739   -6.5971    0.7949   -6.5872    0.8342   -6.5914    0.8442 -137.5718  -65.2436
  9.710   -6.5298    0.7169   -6.7103    1.0014   -6.5432    0.7556   -6.5669    0.7729   -6.5557    0.8114   -6.5599    0.8214 -128.2078  -65.2907
  9.720   -6.4996    0.7002   -6.6776    0.9677   -6.5127    0.7385   -6.5369    0.7523   -6.5244    0.7901   -6.5287    0.8001 -119.7232  -65.3347
  9.730   -6.4697    0.6844   -6.6449    0.9365   -6.4826    0.7224   -6.5071    0.7330   -6.4935    0.7701   -6.4978    0.7801 -112.0157  -65.3759
  9.740   -6.4402    0.6695   -6.6123    0.9074   -6.4529    0.7073   -6.4776    0.7149   -6.4629    0.7514   -6.4672    0.7615 -104.9921  -65.4145
  9.750   -6.4112    0.6555   -6.5798    0.8802   -6.4236    0.6930   -6.4484    0.6979   -6.4327    0.7339   -6.4370    0.7439  -98.5686  -65.4507
  9.760   -6.3825    0.6423   -6.5475    0.8550   -6.3948    0.6795   -6.4195    0.6819   -6.4028    0.7174   -6.4071    0.7275  -92.6709  -65.4847
  9.770   -6.3542    0.6298   -6.5155    0.8314   -6.3663    0.6668   -6.3909    0.6668   -6.3734    0.7019   -6.3777    0.7120  -87.2335  -65.5168
  9.780   -6.3263    0.6180   -6.4839    0.8093   -6.3383    0.6548   -6.3626    0.6526   -6.3443    0.6874   -6.3486    0.6975  -82.1996  -65.5470
  9.790   -6.2989    0.6068   -6.4526    0.7887   -6.3106    0.6434   -6.3348    0.6392   -6.3157    0.6737   -6.3200    0.6837  -77.5199  -65.5755
  9.800   -6.2718    0.5962   -6.4217    0.7693   -6.2834    0.6326   -6.3072    0.6265   -6.2874    0.6607   -6.2918    0.6708  -73.1524  -65.6024
  9.810   -6.2450    0.5861   -6.3912    0.7512   -6.2565    0.6224   -6.2800    0.6145   -6.2596    0.6485   -6.2639    0.6586  -69.0610  -65.6278
  9.820   -6.2187    0.5766   -6.3612    0.7341   -6.2300    0.6126   -6.2532    0.6031   -6.2321    0.6369   -6.2365    0.6470  -65.2156  -65.6517
  9.830   -6.1927    0.5674   -6.3315    0.7181   -6.2039    0.6033   -6.2267    0.5923   -6.2051    0.6259   -6.2094    0.6360  -61.5905  -65.6744
  9.840   -6.1670    0.5588   -6.3023    0.7030   -6.1781    0.5945   -6.2006    0.5821   -6.1784    0.6155   -6.1828    0.6256  -58.1642  -65.6957
  9.850   -6.1417    0.5505   -6.2735    0.6888   -6.1527    0.5861   -6.1748    0.5724   -6.1521    0.6057   -6.1565    0.6157  -54.9187  -65.7159
  9.860   -6.1168    0.5426   -6.2452    0.6753   -6.1276    0.5780   -6.1493    0.5631   -6.1262    0.5963   -6.1305    0.6063  -51.8390  -65.7350
  9.870   -6.0921    0.5350   -6.2172    0.6626   -6.1029    0.5703   -6.1242    0.5543   -6.1006    0.5873   -6.1050    0.5973  -48.9124  -65.7529
  9.880   -6.0678    0.5278   -6.1897    0.6506   -6.0785    0.5629   -6.0993    0.5459   -6.0754    0.5788   -6.0798    0.5888  -46.1282  -65.7699
  9.890   -6.0438    0.5208   -6.1625    0.6392   -6.0544    0.5559   -6.0748    0.5379   -6.0505    0.5707   -6.0549    0.5806  -43.4774  -65.7859
  9.900   -6.0200    0.5142   -6.1358    0.6283   -6.0306    0.5491   -6.0506    0.5303   -6.0259    0.5629   -6.0303    0.5728  -40.9522  -65.8009
  9.910   -5.9966    0.5078   -6.1094    0.6181   -6.0071    0.5426   -6.0267    0.5229   -6.0017    0.5555   -6.0061    0.5654  -38.5460  -65.8151
  9.920   -5.9735    0.5017   -6.0835    0.6083   -5.9838    0.5364   -6.0031    0.5159   -5.9778    0.5484   -5.9822    0.5583  -36.2532  -65.8284
  9.930   -5.9506    0.4958   -6.0579    0.5990   -5.9609    0.5304   -5.9798    0.5092   -5.9542    0.5416   -5.9586    0.5514  -34.0685  -65.8409
  9.940   -5.9280    0.4901   -6.0326    0.5901   -5.9382    0.5246   -5.9567    0.5027   -5.9309    0.5350   -5.9353    0.5449  -31.9875  -65.8527
  9.950   -5.9056    0.4847   -6.0077    0.5816   -5.9158    0.5190   -5.9339    0.4965   -5.9079    0.5288   -5.9123    0.5386  -30.0061  -65.8637
  9.960   -5.8835    0.4794   -5.9831    0.5736   -5.8936    0.5137   -5.9114    0.4906   -5.8851    0.5227   -5.8895    0.5325  -28.1206  -65.8740
  9.970   -5.8617    0.4744   -5.9589    0.5658   -5.8717    0.5085   -5.8891    0.4848   -5.8627    0.5169   -5.8670    0.5267  -26.3276  -65.8837
  9.980   -5.8400    0.4695   -5.9350    0.5584   -5.8500    0.5035   -5.8671    0.4793   -5.8404    0.5114   -5.8448    0.5211  -24.6237  -65.8924
  9.990   -5.8186    0.4647   -5.9114    0.5513   -5.8286    0.4986   -5.8453    0.4740   -5.8185    0.5060   -5.8229    0.5157  -23.0061  -65.9022
 10.000   -5.7975    0.4602   -5.8881    0.5445   -5.8074    0.4940   -5.8238    0.4689   -5.7968    0.5008   -5.8012    0.5105  -21.4717  -65.9052
