# Macroscopic dielectric function obtained with the BS equation.
#  RPA L0 with KS energies and KS wavefunctions     LOCAL FIELD EFFECTS INCLUDED
# RESONANT-ONLY calculation
# Coulomb term constructed with full W(G1,G2)
# Scissor operator energy =  0.8000 [eV]
# Tolerance = -0.0010 0.0000
# npweps  = 113
# npwwfn  = 283
# nbands  = 8
# loband  = 2
# nkibz   = 3
# nkbz    = 8
# Lorentzian broadening =  0.0001 [eV]
# List of q-points for the optical limit:
# q =  0.938821, 0.000000, 0.000000, [Reduced coords] 
# q =  0.000000, 0.938821, 0.000000, [Reduced coords] 
# q =  0.000000, 0.000000, 0.938821, [Reduced coords] 
# q =  0.000000, 0.813043, 0.813043, [Reduced coords] 
# q =  0.813043, 0.000000, 0.813043, [Reduced coords] 
# q =  0.813043, 0.813043, 0.000000, [Reduced coords] 
# omega [eV]    RE(eps(q=1)) IM(eps(q=1) RE(eps(q=2) ) ... 
  0.000   55.7308    0.0000   55.6769    0.0000   55.6882    0.0000   55.6939    0.0000   55.7849    0.0000   55.7929    0.0000
  0.010   55.7314    0.0087   55.6775    0.0093   55.6887    0.0093   55.6944    0.0087   55.7855    0.0094   55.7935    0.0094
  0.020   55.7331    0.0174   55.6792    0.0186   55.6904    0.0185   55.6961    0.0174   55.7872    0.0188   55.7951    0.0188
  0.030   55.7359    0.0261   55.6820    0.0278   55.6932    0.0278   55.6989    0.0260   55.7900    0.0282   55.7980    0.0283
  0.040   55.7398    0.0348   55.6859    0.0371   55.6972    0.0371   55.7029    0.0347   55.7939    0.0376   55.8019    0.0377
  0.050   55.7449    0.0435   55.6910    0.0464   55.7022    0.0463   55.7079    0.0434   55.7990    0.0470   55.8070    0.0471
  0.060   55.7511    0.0523   55.6972    0.0557   55.7084    0.0556   55.7141    0.0521   55.8052    0.0564   55.8132    0.0566
  0.070   55.7584    0.0610   55.7045    0.0650   55.7157    0.0649   55.7214    0.0608   55.8126    0.0659   55.8206    0.0660
  0.080   55.7669    0.0697   55.7129    0.0743   55.7241    0.0742   55.7299    0.0695   55.8210    0.0753   55.8290    0.0755
  0.090   55.7765    0.0785   55.7224    0.0836   55.7337    0.0835   55.7395    0.0782   55.8306    0.0847   55.8386    0.0849
  0.100   55.7872    0.0872   55.7331    0.0930   55.7444    0.0928   55.7502    0.0870   55.8414    0.0942   55.8494    0.0944
  0.110   55.7990    0.0960   55.7449    0.1023   55.7562    0.1022   55.7620    0.0957   55.8532    0.1037   55.8612    0.1039
  0.120   55.8120    0.1047   55.7579    0.1116   55.7691    0.1115   55.7750    0.1044   55.8663    0.1131   55.8743    0.1134
  0.130   55.8261    0.1135   55.7720    0.1210   55.7832    0.1209   55.7891    0.1132   55.8804    0.1226   55.8884    0.1229
  0.140   55.8414    0.1223   55.7872    0.1304   55.7984    0.1302   55.8043    0.1220   55.8957    0.1321   55.9037    0.1324
  0.150   55.8577    0.1311   55.8035    0.1398   55.8148    0.1396   55.8207    0.1308   55.9121    0.1417   55.9201    0.1420
  0.160   55.8753    0.1400   55.8210    0.1492   55.8323    0.1490   55.8382    0.1396   55.9297    0.1512   55.9377    0.1515
  0.170   55.8940    0.1488   55.8396    0.1586   55.8509    0.1584   55.8569    0.1484   55.9484    0.1607   55.9565    0.1611
  0.180   55.9138    0.1577   55.8594    0.1681   55.8707    0.1679   55.8767    0.1572   55.9683    0.1703   55.9763    0.1707
  0.190   55.9347    0.1666   55.8803    0.1776   55.8916    0.1773   55.8976    0.1661   55.9893    0.1799   55.9974    0.1803
  0.200   55.9569    0.1755   55.9024    0.1870   55.9137    0.1868   55.9197    0.1750   56.0115    0.1895   56.0195    0.1900
  0.210   55.9801    0.1844   55.9256    0.1966   55.9369    0.1963   55.9430    0.1839   56.0349    0.1992   56.0429    0.1996
  0.220   56.0046    0.1934   55.9500    0.2061   55.9613    0.2058   55.9674    0.1928   56.0594    0.2089   56.0674    0.2093
  0.230   56.0302    0.2024   55.9755    0.2157   55.9868    0.2154   55.9930    0.2018   56.0850    0.2186   56.0931    0.2190
  0.240   56.0569    0.2114   56.0022    0.2253   56.0135    0.2250   56.0197    0.2108   56.1118    0.2283   56.1199    0.2288
  0.250   56.0849    0.2204   56.0300    0.2349   56.0413    0.2346   56.0476    0.2198   56.1398    0.2380   56.1479    0.2385
  0.260   56.1140    0.2294   56.0590    0.2445   56.0704    0.2442   56.0767    0.2288   56.1690    0.2478   56.1771    0.2483
  0.270   56.1442    0.2385   56.0892    0.2542   56.1006    0.2539   56.1070    0.2379   56.1994    0.2576   56.2074    0.2582
  0.280   56.1757    0.2476   56.1206    0.2639   56.1319    0.2636   56.1384    0.2470   56.2309    0.2675   56.2390    0.2680
  0.290   56.2083    0.2568   56.1531    0.2737   56.1645    0.2733   56.1710    0.2561   56.2636    0.2773   56.2717    0.2779
  0.300   56.2421    0.2660   56.1869    0.2835   56.1982    0.2831   56.2048    0.2652   56.2975    0.2873   56.3056    0.2879
  0.310   56.2771    0.2752   56.2218    0.2933   56.2332    0.2929   56.2398    0.2744   56.3326    0.2972   56.3407    0.2978
  0.320   56.3133    0.2844   56.2579    0.3031   56.2693    0.3027   56.2760    0.2836   56.3690    0.3072   56.3770    0.3079
  0.330   56.3508    0.2937   56.2952    0.3130   56.3066    0.3126   56.3134    0.2929   56.4065    0.3172   56.4145    0.3179
  0.340   56.3894    0.3030   56.3337    0.3229   56.3451    0.3225   56.3520    0.3022   56.4452    0.3273   56.4533    0.3280
  0.350   56.4292    0.3124   56.3734    0.3329   56.3849    0.3325   56.3918    0.3115   56.4851    0.3374   56.4932    0.3381
  0.360   56.4702    0.3218   56.4144    0.3429   56.4258    0.3425   56.4328    0.3209   56.5263    0.3475   56.5344    0.3483
  0.370   56.5125    0.3312   56.4565    0.3530   56.4680    0.3525   56.4750    0.3303   56.5687    0.3577   56.5768    0.3585
  0.380   56.5560    0.3407   56.4999    0.3631   56.5114    0.3626   56.5185    0.3398   56.6123    0.3680   56.6204    0.3688
  0.390   56.6007    0.3503   56.5445    0.3732   56.5560    0.3728   56.5632    0.3493   56.6571    0.3783   56.6652    0.3791
  0.400   56.6467    0.3598   56.5904    0.3834   56.6019    0.3829   56.6091    0.3589   56.7032    0.3886   56.7113    0.3894
  0.410   56.6939    0.3695   56.6374    0.3937   56.6490    0.3932   56.6563    0.3685   56.7505    0.3990   56.7587    0.3998
  0.420   56.7424    0.3791   56.6858    0.4040   56.6973    0.4035   56.7047    0.3781   56.7991    0.4094   56.8073    0.4103
  0.430   56.7921    0.3889   56.7354    0.4143   56.7469    0.4138   56.7544    0.3878   56.8490    0.4199   56.8571    0.4208
  0.440   56.8431    0.3986   56.7862    0.4247   56.7978    0.4242   56.8054    0.3976   56.9001    0.4305   56.9083    0.4314
  0.450   56.8953    0.4084   56.8383    0.4352   56.8499    0.4346   56.8576    0.4073   56.9525    0.4411   56.9607    0.4420
  0.460   56.9489    0.4183   56.8917    0.4457   56.9033    0.4451   56.9111    0.4172   57.0062    0.4517   57.0144    0.4527
  0.470   57.0037    0.4283   56.9464    0.4562   56.9580    0.4557   56.9659    0.4271   57.0612    0.4625   57.0693    0.4634
  0.480   57.0598    0.4382   57.0024    0.4669   57.0140    0.4663   57.0220    0.4371   57.1175    0.4732   57.1256    0.4742
  0.490   57.1173    0.4483   57.0596    0.4776   57.0713    0.4770   57.0794    0.4471   57.1750    0.4841   57.1832    0.4851
  0.500   57.1760    0.4584   57.1182    0.4883   57.1299    0.4877   57.1381    0.4572   57.2339    0.4950   57.2421    0.4960
  0.510   57.2360    0.4686   57.1781    0.4991   57.1898    0.4985   57.1981    0.4673   57.2941    0.5060   57.3023    0.5070
  0.520   57.2974    0.4788   57.2393    0.5100   57.2510    0.5094   57.2594    0.4775   57.3557    0.5170   57.3639    0.5181
  0.530   57.3601    0.4891   57.3019    0.5210   57.3136    0.5203   57.3221    0.4878   57.4186    0.5281   57.4268    0.5292
  0.540   57.4242    0.4994   57.3657    0.5320   57.3775    0.5314   57.3861    0.4982   57.4828    0.5393   57.4910    0.5404
  0.550   57.4896    0.5099   57.4310    0.5431   57.4427    0.5424   57.4515    0.5086   57.5484    0.5505   57.5566    0.5517
  0.560   57.5564    0.5204   57.4976    0.5543   57.5093    0.5536   57.5182    0.5190   57.6154    0.5619   57.6236    0.5630
  0.570   57.6245    0.5309   57.5655    0.5655   57.5773    0.5648   57.5863    0.5296   57.6837    0.5733   57.6919    0.5744
  0.580   57.6940    0.5416   57.6348    0.5768   57.6467    0.5761   57.6558    0.5402   57.7534    0.5847   57.7617    0.5859
  0.590   57.7649    0.5523   57.7056    0.5882   57.7174    0.5875   57.7267    0.5509   57.8245    0.5963   57.8328    0.5975
  0.600   57.8373    0.5631   57.7777    0.5997   57.7895    0.5990   57.7990    0.5617   57.8970    0.6080   57.9053    0.6092
  0.610   57.9110    0.5740   57.8512    0.6113   57.8631    0.6105   57.8726    0.5725   57.9710    0.6197   57.9792    0.6209
  0.620   57.9861    0.5849   57.9262    0.6229   57.9381    0.6221   57.9477    0.5834   58.0463    0.6315   58.0546    0.6328
  0.630   58.0627    0.5959   58.0025    0.6346   58.0144    0.6339   58.0243    0.5945   58.1231    0.6434   58.1314    0.6447
  0.640   58.1408    0.6071   58.0803    0.6464   58.0923    0.6457   58.1023    0.6056   58.2014    0.6554   58.2097    0.6567
  0.650   58.2202    0.6183   58.1596    0.6583   58.1716    0.6576   58.1817    0.6167   58.2811    0.6675   58.2894    0.6688
  0.660   58.3012    0.6295   58.2403    0.6703   58.2523    0.6695   58.2626    0.6280   58.3622    0.6796   58.3706    0.6810
  0.670   58.3836    0.6409   58.3225    0.6824   58.3345    0.6816   58.3450    0.6394   58.4449    0.6919   58.4533    0.6933
  0.680   58.4675    0.6524   58.4062    0.6946   58.4183    0.6938   58.4289    0.6508   58.5291    0.7043   58.5374    0.7057
  0.690   58.5530    0.6640   58.4914    0.7069   58.5035    0.7061   58.5142    0.6624   58.6147    0.7168   58.6231    0.7182
  0.700   58.6399    0.6756   58.5781    0.7193   58.5902    0.7185   58.6011    0.6740   58.7019    0.7293   58.7103    0.7308
  0.710   58.7284    0.6874   58.6663    0.7318   58.6785    0.7309   58.6896    0.6857   58.7906    0.7420   58.7990    0.7435
  0.720   58.8184    0.6992   58.7561    0.7444   58.7683    0.7435   58.7795    0.6976   58.8809    0.7548   58.8893    0.7563
  0.730   58.9100    0.7112   58.8474    0.7571   58.8596    0.7562   58.8710    0.7095   58.9728    0.7677   58.9812    0.7692
  0.740   59.0031    0.7232   58.9403    0.7699   58.9525    0.7690   58.9641    0.7216   59.0662    0.7807   59.0746    0.7822
  0.750   59.0979    0.7354   59.0348    0.7828   59.0470    0.7819   59.0588    0.7337   59.1612    0.7938   59.1696    0.7954
  0.760   59.1942    0.7477   59.1308    0.7959   59.1431    0.7949   59.1551    0.7460   59.2578    0.8070   59.2662    0.8086
  0.770   59.2921    0.7601   59.2285    0.8090   59.2408    0.8081   59.2530    0.7583   59.3560    0.8204   59.3645    0.8220
  0.780   59.3917    0.7726   59.3278    0.8223   59.3401    0.8213   59.3525    0.7708   59.4558    0.8339   59.4643    0.8355
  0.790   59.4929    0.7852   59.4287    0.8357   59.4411    0.8347   59.4537    0.7834   59.5574    0.8475   59.5658    0.8491
  0.800   59.5958    0.7979   59.5313    0.8492   59.5437    0.8482   59.5565    0.7962   59.6605    0.8612   59.6690    0.8629
  0.810   59.7004    0.8108   59.6356    0.8629   59.6480    0.8619   59.6610    0.8090   59.7654    0.8751   59.7739    0.8768
  0.820   59.8066    0.8238   59.7415    0.8766   59.7540    0.8756   59.7672    0.8220   59.8720    0.8891   59.8805    0.8908
  0.830   59.9146    0.8369   59.8492    0.8906   59.8617    0.8895   59.8751    0.8351   59.9802    0.9032   59.9888    0.9049
  0.840   60.0243    0.8501   59.9586    0.9046   59.9711    0.9036   59.9847    0.8483   60.0902    0.9175   60.0988    0.9192
  0.850   60.1357    0.8635   60.0697    0.9188   60.0822    0.9178   60.0961    0.8617   60.2020    0.9319   60.2106    0.9336
  0.860   60.2489    0.8770   60.1826    0.9331   60.1951    0.9321   60.2092    0.8751   60.3155    0.9464   60.3241    0.9482
  0.870   60.3639    0.8907   60.2972    0.9476   60.3098    0.9465   60.3242    0.8888   60.4309    0.9611   60.4395    0.9629
  0.880   60.4807    0.9044   60.4137    0.9622   60.4263    0.9611   60.4409    0.9025   60.5480    0.9760   60.5566    0.9778
  0.890   60.5993    0.9184   60.5319    0.9770   60.5446    0.9759   60.5594    0.9165   60.6669    0.9910   60.6756    0.9928
  0.900   60.7198    0.9325   60.6520    0.9919   60.6647    0.9908   60.6798    0.9305   60.7877    1.0062   60.7964    1.0080
  0.910   60.8421    0.9467   60.7740    1.0070   60.7867    1.0059   60.8021    0.9447   60.9104    1.0215   60.9191    1.0234
  0.920   60.9663    0.9611   60.8978    1.0222   60.9106    1.0211   60.9262    0.9591   61.0350    1.0370   61.0437    1.0389
  0.930   61.0924    0.9756   61.0236    1.0377   61.0364    1.0365   61.0522    0.9736   61.1614    1.0526   61.1701    1.0546
  0.940   61.2204    0.9903   61.1512    1.0532   61.1641    1.0521   61.1802    0.9883   61.2898    1.0685   61.2986    1.0704
  0.950   61.3504    1.0052   61.2808    1.0690   61.2937    1.0678   61.3101    1.0032   61.4202    1.0845   61.4289    1.0864
  0.960   61.4823    1.0202   61.4123    1.0849   61.4253    1.0837   61.4420    1.0182   61.5525    1.1007   61.5613    1.1026
  0.970   61.6162    1.0354   61.5459    1.1010   61.5588    1.0998   61.5758    1.0334   61.6868    1.1170   61.6956    1.1190
  0.980   61.7522    1.0508   61.6814    1.1173   61.6944    1.1161   61.7117    1.0488   61.8232    1.1336   61.8320    1.1356
  0.990   61.8901    1.0663   61.8190    1.1338   61.8320    1.1326   61.8496    1.0643   61.9615    1.1503   61.9704    1.1524
  1.000   62.0302    1.0820   61.9586    1.1504   61.9717    1.1492   61.9896    1.0800   62.1020    1.1673   62.1109    1.1693
  1.010   62.1723    1.0979   62.1003    1.1673   62.1134    1.1661   62.1316    1.0959   62.2446    1.1844   62.2534    1.1865
  1.020   62.3165    1.1141   62.2441    1.1843   62.2573    1.1831   62.2758    1.1120   62.3892    1.2018   62.3981    1.2039
  1.030   62.4629    1.1304   62.3901    1.2016   62.4033    1.2004   62.4221    1.1283   62.5361    1.2193   62.5450    1.2214
  1.040   62.6115    1.1469   62.5382    1.2191   62.5514    1.2178   62.5706    1.1448   62.6851    1.2371   62.6940    1.2392
  1.050   62.7622    1.1636   62.6884    1.2368   62.7018    1.2355   62.7213    1.1615   62.8363    1.2550   62.8452    1.2572
  1.060   62.9152    1.1805   62.8409    1.2547   62.8543    1.2534   62.8742    1.1784   62.9897    1.2732   62.9987    1.2754
  1.070   63.0704    1.1976   62.9957    1.2728   63.0091    1.2715   63.0293    1.1956   63.1454    1.2917   63.1544    1.2939
  1.080   63.2279    1.2149   63.1527    1.2911   63.1661    1.2898   63.1867    1.2129   63.3033    1.3103   63.3124    1.3126
  1.090   63.3877    1.2325   63.3120    1.3097   63.3255    1.3084   63.3465    1.2304   63.4636    1.3292   63.4727    1.3315
  1.100   63.5498    1.2503   63.4737    1.3285   63.4872    1.3272   63.5085    1.2482   63.6263    1.3484   63.6353    1.3506
  1.110   63.7143    1.2683   63.6377    1.3476   63.6513    1.3462   63.6730    1.2662   63.7913    1.3678   63.8004    1.3700
  1.120   63.8813    1.2865   63.8041    1.3669   63.8177    1.3655   63.8398    1.2845   63.9587    1.3874   63.9678    1.3897
  1.130   64.0506    1.3050   63.9729    1.3864   63.9866    1.3851   64.0091    1.3030   64.1286    1.4073   64.1377    1.4096
  1.140   64.2224    1.3238   64.1442    1.4062   64.1579    1.4049   64.1808    1.3217   64.3009    1.4274   64.3101    1.4298
  1.150   64.3967    1.3427   64.3180    1.4263   64.3318    1.4249   64.3551    1.3407   64.4758    1.4479   64.4850    1.4502
  1.160   64.5736    1.3620   64.4943    1.4467   64.5081    1.4453   64.5318    1.3600   64.6532    1.4686   64.6624    1.4710
  1.170   64.7530    1.3815   64.6731    1.4673   64.6870    1.4659   64.7112    1.3795   64.8332    1.4896   64.8424    1.4920
  1.180   64.9351    1.4013   64.8546    1.4882   64.8686    1.4868   64.8932    1.3993   65.0158    1.5108   65.0250    1.5133
  1.190   65.1197    1.4213   65.0387    1.5094   65.0527    1.5080   65.0778    1.4194   65.2010    1.5324   65.2103    1.5349
  1.200   65.3071    1.4417   65.2255    1.5309   65.2395    1.5295   65.2651    1.4397   65.3890    1.5543   65.3983    1.5568
  1.210   65.4972    1.4623   65.4150    1.5527   65.4291    1.5512   65.4551    1.4604   65.5797    1.5765   65.5890    1.5790
  1.220   65.6901    1.4832   65.6072    1.5748   65.6214    1.5733   65.6479    1.4813   65.7731    1.5990   65.7825    1.6015
  1.230   65.8857    1.5044   65.8022    1.5972   65.8165    1.5957   65.8434    1.5025   65.9694    1.6218   65.9788    1.6243
  1.240   66.0842    1.5260   66.0001    1.6199   66.0144    1.6185   66.0419    1.5241   66.1685    1.6450   66.1780    1.6475
  1.250   66.2856    1.5478   66.2009    1.6430   66.2152    1.6415   66.2432    1.5459   66.3706    1.6684   66.3801    1.6710
  1.260   66.4899    1.5700   66.4045    1.6664   66.4189    1.6649   66.4474    1.5681   66.5756    1.6923   66.5851    1.6948
  1.270   66.6972    1.5925   66.6111    1.6902   66.6256    1.6887   66.6547    1.5907   66.7835    1.7165   66.7931    1.7191
  1.280   66.9075    1.6153   66.8208    1.7143   66.8353    1.7128   66.8649    1.6135   66.9945    1.7410   67.0041    1.7436
  1.290   67.1209    1.6385   67.0335    1.7388   67.0481    1.7372   67.0782    1.6367   67.2086    1.7660   67.2182    1.7686
  1.300   67.3374    1.6621   67.2493    1.7636   67.2639    1.7621   67.2947    1.6603   67.4258    1.7913   67.4354    1.7939
  1.310   67.5571    1.6860   67.4682    1.7888   67.4830    1.7873   67.5143    1.6842   67.6462    1.8170   67.6559    1.8196
  1.320   67.7800    1.7103   67.6904    1.8144   67.7052    1.8129   67.7371    1.7086   67.8698    1.8430   67.8795    1.8457
  1.330   68.0062    1.7349   67.9158    1.8404   67.9307    1.8389   67.9632    1.7332   68.0967    1.8695   68.1065    1.8722
  1.340   68.2356    1.7600   68.1445    1.8669   68.1595    1.8653   68.1926    1.7583   68.3269    1.8965   68.3367    1.8992
  1.350   68.4685    1.7854   68.3766    1.8937   68.3916    1.8921   68.4254    1.7838   68.5606    1.9238   68.5704    1.9265
  1.360   68.7048    1.8113   68.6121    1.9210   68.6272    1.9194   68.6616    1.8097   68.7976    1.9516   68.8075    1.9543
  1.370   68.9446    1.8375   68.8511    1.9487   68.8662    1.9471   68.9013    1.8360   69.0382    1.9798   69.0481    1.9826
  1.380   69.1879    1.8643   69.0936    1.9768   69.1088    1.9752   69.1445    1.8628   69.2823    2.0085   69.2923    2.0113
  1.390   69.4348    1.8914   69.3397    2.0054   69.3550    2.0038   69.3914    1.8900   69.5301    2.0377   69.5401    2.0405
  1.400   69.6854    1.9190   69.5895    2.0345   69.6048    2.0329   69.6419    1.9176   69.7815    2.0673   69.7916    2.0701
  1.410   69.9397    1.9471   69.8429    2.0641   69.8583    2.0624   69.8962    1.9457   70.0367    2.0975   70.0468    2.1003
  1.420   70.1979    1.9756   70.1002    2.0941   70.1156    2.0925   70.1543    1.9743   70.2957    2.1281   70.3058    2.1310
  1.430   70.4598    2.0046   70.3613    2.1247   70.3768    2.1230   70.4162    2.0034   70.5586    2.1593   70.5687    2.1621
  1.440   70.7257    2.0342   70.6263    2.1558   70.6419    2.1541   70.6820    2.0330   70.8254    2.1910   70.8356    2.1939
  1.450   70.9957    2.0642   70.8952    2.1874   70.9109    2.1857   70.9519    2.0631   71.0962    2.2233   71.1065    2.2261
  1.460   71.2696    2.0948   71.1683    2.2196   71.1841    2.2179   71.2258    2.0937   71.3712    2.2561   71.3814    2.2590
  1.470   71.5478    2.1258   71.4454    2.2523   71.4613    2.2506   71.5039    2.1249   71.6502    2.2895   71.6606    2.2924
  1.480   71.8301    2.1575   71.7268    2.2856   71.7427    2.2839   71.7862    2.1566   71.9335    2.3235   71.9439    2.3264
  1.490   72.1167    2.1897   72.0124    2.3195   72.0284    2.3178   72.0728    2.1889   72.2212    2.3580   72.2316    2.3610
  1.500   72.4078    2.2225   72.3024    2.3541   72.3185    2.3523   72.3637    2.2218   72.5132    2.3933   72.5237    2.3962
  1.510   72.7032    2.2559   72.5968    2.3892   72.6130    2.3875   72.6591    2.2553   72.8097    2.4291   72.8203    2.4321
  1.520   73.0032    2.2899   72.8958    2.4250   72.9121    2.4232   72.9591    2.2893   73.1108    2.4656   73.1214    2.4686
  1.530   73.3079    2.3246   73.1993    2.4614   73.2157    2.4597   73.2637    2.3241   73.4165    2.5028   73.4271    2.5058
  1.540   73.6172    2.3599   73.5075    2.4985   73.5240    2.4967   73.5730    2.3595   73.7269    2.5407   73.7376    2.5436
  1.550   73.9314    2.3958   73.8206    2.5363   73.8371    2.5345   73.8871    2.3955   74.0422    2.5792   74.0529    2.5822
  1.560   74.2504    2.4324   74.1384    2.5748   74.1551    2.5730   74.2061    2.4322   74.3624    2.6186   74.3732    2.6216
  1.570   74.5745    2.4698   74.4613    2.6140   74.4781    2.6123   74.5301    2.4697   74.6876    2.6586   74.6984    2.6616
  1.580   74.9036    2.5078   74.7892    2.6540   74.8061    2.6523   74.8592    2.5079   75.0179    2.6995   75.0288    2.7025
  1.590   75.2379    2.5466   75.1223    2.6948   75.1393    2.6930   75.1935    2.5468   75.3534    2.7411   75.3644    2.7441
  1.600   75.5775    2.5862   75.4607    2.7363   75.4777    2.7346   75.5331    2.5865   75.6943    2.7835   75.7053    2.7865
  1.610   75.9225    2.6265   75.8044    2.7787   75.8216    2.7769   75.8781    2.6269   76.0405    2.8268   76.0517    2.8298
  1.620   76.2731    2.6677   76.1537    2.8219   76.1709    2.8201   76.2286    2.6682   76.3923    2.8709   76.4035    2.8740
  1.630   76.6292    2.7097   76.5085    2.8660   76.5258    2.8642   76.5848    2.7103   76.7498    2.9159   76.7611    2.9190
  1.640   76.9911    2.7525   76.8690    2.9109   76.8865    2.9092   76.9467    2.7533   77.1130    2.9619   77.1244    2.9649
  1.650   77.3589    2.7962   77.2354    2.9568   77.2529    2.9550   77.3144    2.7971   77.4822    3.0087   77.4936    3.0118
  1.660   77.7327    2.8408   77.6077    3.0036   77.6254    3.0018   77.6882    2.8419   77.8573    3.0566   77.8688    3.0596
  1.670   78.1125    2.8863   77.9861    3.0514   78.0039    3.0496   78.0681    2.8876   78.2386    3.1054   78.2501    3.1085
  1.680   78.4986    2.9328   78.3707    3.1002   78.3886    3.0984   78.4542    2.9343   78.6261    3.1553   78.6378    3.1583
  1.690   78.8911    2.9803   78.7617    3.1500   78.7797    3.1482   78.8467    2.9819   79.0201    3.2062   79.0318    3.2092
  1.700   79.2901    3.0288   79.1591    3.2008   79.1772    3.1990   79.2457    3.0306   79.4206    3.2582   79.4324    3.2612
  1.710   79.6958    3.0784   79.5632    3.2528   79.5814    3.2510   79.6514    3.0803   79.8278    3.3113   79.8397    3.3143
  1.720   80.1082    3.1290   79.9740    3.3058   79.9924    3.3040   80.0639    3.1312   80.2418    3.3655   80.2538    3.3686
  1.730   80.5276    3.1807   80.3918    3.3600   80.4103    3.3582   80.4833    3.1831   80.6629    3.4210   80.6749    3.4240
  1.740   80.9542    3.2336   80.8166    3.4154   80.8352    3.4136   80.9099    3.2362   81.0911    3.4776   81.1032    3.4807
  1.750   81.3880    3.2876   81.2487    3.4721   81.2674    3.4703   81.3438    3.2905   81.5266    3.5356   81.5387    3.5386
  1.760   81.8293    3.3429   81.6882    3.5300   81.7070    3.5282   81.7851    3.3460   81.9695    3.5948   81.9818    3.5978
  1.770   82.2781    3.3994   82.1353    3.5892   82.1542    3.5874   82.2340    3.4027   82.4202    3.6554   82.4325    3.6584
  1.780   82.7348    3.4573   82.5901    3.6497   82.6092    3.6479   82.6908    3.4608   82.8786    3.7173   82.8911    3.7204
  1.790   83.1994    3.5164   83.0528    3.7116   83.0720    3.7099   83.1555    3.5203   83.3451    3.7807   83.3577    3.7837
  1.800   83.6723    3.5770   83.5237    3.7750   83.5430    3.7732   83.6284    3.5811   83.8198    3.8456   83.8325    3.8486
  1.810   84.1534    3.6390   84.0028    3.8399   84.0223    3.8381   84.1097    3.6434   84.3029    3.9120   84.3157    3.9150
  1.820   84.6432    3.7024   84.4905    3.9063   84.5102    3.9045   84.5996    3.7071   84.7946    3.9799   84.8075    3.9829
  1.830   85.1417    3.7674   84.9869    3.9742   85.0067    3.9725   85.0982    3.7724   85.2951    4.0495   85.3081    4.0525
  1.840   85.6492    3.8339   85.4923    4.0438   85.5122    4.0421   85.6058    3.8393   85.8047    4.1208   85.8178    4.1238
  1.850   86.1659    3.9021   86.0068    4.1151   86.0269    4.1134   86.1227    3.9078   86.3235    4.1938   86.3367    4.1968
  1.860   86.6921    3.9720   86.5307    4.1881   86.5509    4.1864   86.6490    3.9780   86.8518    4.2686   86.8651    4.2716
  1.870   87.2279    4.0436   87.0642    4.2630   87.0846    4.2613   87.1850    4.0500   87.3899    4.3453   87.4033    4.3482
  1.880   87.7737    4.1170   87.6076    4.3397   87.6282    4.3380   87.7310    4.1238   87.9379    4.4239   87.9515    4.4268
  1.890   88.3297    4.1922   88.1612    4.4183   88.1818    4.4166   88.2872    4.1994   88.4962    4.5045   88.5099    4.5073
  1.900   88.8961    4.2694   88.7251    4.4990   88.7459    4.4973   88.8538    4.2771   89.0649    4.5871   89.0788    4.5900
  1.910   89.4732    4.3486   89.2996    4.5817   89.3207    4.5800   89.4312    4.3567   89.6445    4.6719   89.6585    4.6747
  1.920   90.0614    4.4299   89.8852    4.6665   89.9063    4.6649   90.0195    4.4384   90.2351    4.7589   90.2492    4.7617
  1.930   90.6608    4.5133   90.4819    4.7536   90.5033    4.7520   90.6193    4.5223   90.8371    4.8482   90.8514    4.8509
  1.940   91.2719    4.5990   91.0902    4.8430   91.1117    4.8414   91.2306    4.6085   91.4508    4.9398   91.4652    4.9426
  1.950   91.8949    4.6869   91.7103    4.9348   91.7320    4.9332   91.8539    4.6969   92.0764    5.0339   92.0910    5.0366
  1.960   92.5301    4.7772   92.3427    5.0290   92.3645    5.0275   92.4894    4.7878   92.7144    5.1306   92.7291    5.1333
  1.970   93.1780    4.8701   92.9875    5.1259   93.0095    5.1243   93.1376    4.8812   93.3651    5.2299   93.3800    5.2326
  1.980   93.8388    4.9655   93.6452    5.2253   93.6674    5.2238   93.7988    4.9772   94.0288    5.3320   94.0438    5.3346
  1.990   94.5129    5.0636   94.3161    5.3276   94.3385    5.3261   94.4733    5.0759   94.7058    5.4370   94.7210    5.4395
  2.000   95.2007    5.1644   95.0007    5.4327   95.0233    5.4313   95.1615    5.1774   95.3967    5.5449   95.4121    5.5474
  2.010   95.9026    5.2682   95.6992    5.5409   95.7220    5.5394   95.8639    5.2819   96.1017    5.6559   96.1173    5.6583
  2.020   96.6191    5.3749   96.4122    5.6521   96.4352    5.6507   96.5807    5.3893   96.8213    5.7701   96.8371    5.7725
  2.030   97.3504    5.4848   97.1400    5.7665   97.1632    5.7652   97.3126    5.5000   97.5560    5.8876   97.5719    5.8899
  2.040   98.0972    5.5980   97.8831    5.8844   97.9065    5.8830   98.0599    5.6139   98.3061    6.0086   98.3223    6.0109
  2.050   98.8598    5.7145   98.6419    6.0057   98.6656    6.0044   98.8230    5.7312   99.0722    6.1332   99.0885    6.1354
  2.060   99.6388    5.8345   99.4170    6.1306   99.4408    6.1294   99.6026    5.8521   99.8547    6.2616   99.8713    6.2637
  2.070  100.4346    5.9582  100.2087    6.2594  100.2328    6.2582  100.3990    5.9767  100.6541    6.3939  100.6709    6.3960
  2.080  101.2477    6.0858  101.0178    6.3921  101.0421    6.3909  101.2128    6.1052  101.4711    6.5302  101.4881    6.5323
  2.090  102.0788    6.2173  101.8446    6.5289  101.8691    6.5277  102.0445    6.2376  102.3060    6.6709  102.3232    6.6728
  2.100  102.9284    6.3530  102.6897    6.6699  102.7145    6.6689  102.8948    6.3743  103.1595    6.8159  103.1770    6.8178
  2.110  103.7971    6.4930  103.5538    6.8155  103.5789    6.8145  103.7642    6.5154  104.0322    6.9656  104.0500    6.9674
  2.120  104.6854    6.6375  104.4375    6.9658  104.4628    6.9648  104.6534    6.6611  104.9248    7.1201  104.9428    7.1218
  2.130  105.5941    6.7868  105.3414    7.1209  105.3669    7.1200  105.5630    6.8115  105.8378    7.2797  105.8561    7.2813
  2.140  106.5239    6.9410  106.2661    7.2811  106.2919    7.2803  106.4936    6.9670  106.7720    7.4446  106.7906    7.4460
  2.150  107.4754    7.1004  107.2124    7.4466  107.2385    7.4459  107.4461    7.1277  107.7281    7.6149  107.7469    7.6163
  2.160  108.4494    7.2652  108.1810    7.6178  108.2074    7.6171  108.4210    7.2938  108.7068    7.7911  108.7259    7.7923
  2.170  109.4466    7.4357  109.1727    7.7947  109.1994    7.7941  109.4193    7.4657  109.7089    7.9732  109.7283    7.9744
  2.180  110.4679    7.6121  110.1883    7.9777  110.2152    7.9772  110.4418    7.6436  110.7352    8.1617  110.7550    8.1627
  2.190  111.5142    7.7947  111.2286    8.1672  111.2558    8.1667  111.4892    7.8278  111.7866    8.3568  111.8067    8.3577
  2.200  112.5863    7.9838  112.2945    8.3633  112.3221    8.3630  112.5625    8.0185  112.8639    8.5589  112.8845    8.5596
  2.210  113.6851    8.1797  113.3870    8.5665  113.4148    8.5662  113.6627    8.2162  113.9682    8.7682  113.9891    8.7688
  2.220  114.8117    8.3828  114.5070    8.7770  114.5351    8.7769  114.7907    8.4211  115.1004    8.9852  115.1217    8.9857
  2.230  115.9670    8.5934  115.6554    8.9953  115.6839    8.9952  115.9475    8.6336  116.2616    9.2102  116.2832    9.2105
  2.240  117.1522    8.8119  116.8335    9.2217  116.8623    9.2217  117.1342    8.8542  117.4528    9.4437  117.4749    9.4438
  2.250  118.3684    9.0388  118.0423    9.4566  118.0714    9.4568  118.3520    9.0831  118.6751    9.6860  118.6977    9.6859
  2.260  119.6168    9.2744  119.2830    9.7006  119.3125    9.7009  119.6021    9.3210  119.9299    9.9377  119.9529    9.9374
  2.270  120.8986    9.5191  120.5568    9.9540  120.5867    9.9544  120.8858    9.5681  121.2183   10.1991  121.2417   10.1987
  2.280  122.2152    9.7736  121.8651   10.2173  121.8953   10.2179  122.2043    9.8251  122.5417   10.4709  122.5656   10.4703
  2.290  123.5679   10.0384  123.2092   10.4912  123.2398   10.4919  123.5591   10.0925  123.9015   10.7537  123.9259   10.7528
  2.300  124.9583   10.3139  124.5906   10.7761  124.6216   10.7770  124.9516   10.3708  125.2991   11.0479  125.3241   11.0469
  2.310  126.3879   10.6008  126.0108   11.0728  126.0422   11.0738  126.3835   10.6607  126.7362   11.3544  126.7617   11.3530
  2.320  127.8583   10.8998  127.4715   11.3818  127.5033   11.3829  127.8563   10.9627  128.2144   11.6736  128.2405   11.6720
  2.330  129.3712   11.2115  128.9743   11.7038  129.0065   11.7052  129.3718   11.2777  129.7354   12.0065  129.7621   12.0046
  2.340  130.9286   11.5366  130.5210   12.0397  130.5536   12.0412  130.9318   11.6064  131.3010   12.3537  131.3284   12.3515
  2.350  132.5323   11.8761  132.1136   12.3901  132.1467   12.3919  132.5384   11.9495  132.9133   12.7161  132.9414   12.7137
  2.360  134.1843   12.2306  133.7541   12.7561  133.7876   12.7581  134.1934   12.3080  134.5743   13.0947  134.6031   13.0920
  2.370  135.8869   12.6013  135.4445   13.1386  135.4786   13.1408  135.8993   12.6828  136.2861   13.4905  136.3157   13.4874
  2.380  137.6424   12.9890  137.1873   13.5385  137.2219   13.5409  137.6581   13.0749  138.0511   13.9044  138.0815   13.9010
  2.390  139.4532   13.3948  138.9848   13.9569  139.0198   13.9596  139.4725   13.4854  139.8718   14.3376  139.9030   14.3339
  2.400  141.3218   13.8199  140.8396   14.3951  140.8751   14.3981  141.3450   13.9155  141.7507   14.7915  141.7828   14.7873
  2.410  143.2512   14.2655  142.7543   14.8543  142.7904   14.8575  143.2783   14.3665  143.6907   15.2673  143.7237   15.2627
  2.420  145.2441   14.7331  144.7319   15.3359  144.7686   15.3394  145.2756   14.8397  145.6946   15.7664  145.7286   15.7614
  2.430  147.3038   15.2240  146.7755   15.8413  146.8127   15.8452  147.3398   15.3367  147.7657   16.2905  147.8007   16.2851
  2.440  149.4336   15.7399  148.8883   16.3723  148.9262   16.3766  149.4744   15.8590  149.9073   16.8413  149.9434   16.8353
  2.450  151.6370   16.2825  151.0739   16.9306  151.1124   16.9352  151.6829   16.4085  152.1230   17.4205  152.1603   17.4141
  2.460  153.9178   16.8538  153.3360   17.5180  153.3751   17.5231  153.9692   16.9871  154.4166   18.0303  154.4551   18.0234
  2.470  156.2802   17.4557  155.6786   18.1368  155.7184   18.1423  156.3374   17.5969  156.7922   18.6729  156.8320   18.6654
  2.480  158.7285   18.0906  158.1060   18.7892  158.1464   18.7951  158.7918   18.2402  159.2542   19.3506  159.2954   19.3425
  2.490  161.2673   18.7608  160.6227   19.4776  160.6639   19.4840  161.3371   18.9195  161.8073   20.0661  161.8499   20.0574
  2.500  163.9017   19.4692  163.2337   20.2049  163.2756   20.2118  163.9785   19.6376  164.4564   20.8223  164.5006   20.8129
  2.510  166.6371   20.2187  165.9444   20.9740  165.9870   20.9815  166.7212   20.3975  167.2071   21.6223  167.2529   21.6123
  2.520  169.4792   21.0125  168.7602   21.7883  168.8037   21.7963  169.5712   21.2026  170.0650   22.4697  170.1126   22.4589
  2.530  172.4342   21.8542  171.6874   22.6513  171.7317   22.6600  172.5347   22.0564  173.0365   23.3683  173.0861   23.3567
  2.540  175.5090   22.7479  174.7326   23.5672  174.7777   23.5765  175.6184   22.9631  176.1283   24.3223  176.1799   24.3099
  2.550  178.7107   23.6978  177.9028   24.5402  177.9489   24.5503  178.8296   23.9272  179.3477   25.3364  179.4015   25.3232
  2.560  182.0472   24.7089  181.2058   25.5753  181.2527   25.5862  182.1763   24.9536  182.7025   26.4158  182.7586   26.4017
  2.570  185.5270   25.7866  184.6497   26.6781  184.6976   26.6898  185.6669   26.0478  186.2012   27.5663  186.2598   27.5512
  2.580  189.1592   26.9367  188.2436   27.8544  188.2926   27.8670  189.3108   27.2159  189.8529   28.7942  189.9143   28.7781
  2.590  192.9539   28.1662  191.9973   29.1111  192.0473   29.1247  193.1178   28.4649  193.6677   30.1068  193.7320   30.0896
  2.600  196.9218   29.4823  195.9214   30.4556  195.9725   30.4703  197.0990   29.8023  197.6564   31.5120  197.7239   31.4937
  2.610  201.0748   30.8936  200.0272   31.8966  200.0795   31.9124  201.2662   31.2368  201.8308   33.0188  201.9016   32.9993
  2.620  205.4257   32.4094  204.3274   33.4433  204.3808   33.4604  205.6322   32.7779  206.2035   34.6373  206.2781   34.6166
  2.630  209.9886   34.0403  208.8356   35.1064  208.8903   35.1249  210.2113   34.4366  210.7888   36.3789  210.8674   36.3568
  2.640  214.7788   35.7983  213.5667   36.8981  213.6228   36.9181  215.0188   36.2251  215.6016   38.2562  215.6847   38.2328
  2.650  219.8130   37.6971  218.5371   38.8319  218.5945   38.8535  220.0716   38.1574  220.6589   40.2839  220.7467   40.2590
  2.660  225.1097   39.7521  223.7646   40.9233  223.8234   40.9467  225.3882   40.2493  225.9787   42.4785  226.0717   42.4521
  2.670  230.6891   41.9808  229.2688   43.1900  229.3291   43.2153  230.9888   42.5188  231.5810   44.8588  231.6799   44.8308
  2.680  236.5733   44.4034  235.0712   45.6520  235.1331   45.6794  236.8958   44.9866  237.4879   47.4463  237.5931   47.4167
  2.690  242.7869   47.0431  241.1955   48.3325  241.2590   48.3623  243.1336   47.6765  243.7234   50.2658  243.8356   50.2344
  2.700  249.3568   49.9264  247.6676   51.2581  247.7329   51.2904  249.7294   50.6156  250.3140   53.3457  250.4339   53.3125
  2.710  256.3126   53.0843  254.5164   54.4595  254.5835   54.4947  256.7129   53.8358  257.2889   56.7189  257.4173   56.6840
  2.720  263.6873   56.5524  261.7734   57.9723  261.8423   58.0107  264.1170   57.3738  264.6801   60.4238  264.8180   60.3871
  2.730  271.5172   60.3726  269.4734   61.8381  269.5443   61.8800  271.9780   61.2724  272.5229   64.5048  272.6714   64.4664
  2.740  279.8424   64.5938  277.6550   66.1055  277.7279   66.1513  280.3361   65.5820  280.8561   69.0144  281.0165   68.9742
  2.750  288.7072   69.2736  286.3606   70.8315  286.4356   70.8816  289.2355   70.3616  289.7225   74.0137  289.8962   73.9720
  2.760  298.1607   74.4801  295.6370   76.0836  295.7141   76.1386  298.7249   75.6815  299.1688   79.5756  299.3574   79.5324
  2.770  308.2568   80.2941  305.5355   81.9417  305.6147   82.0022  308.8581   81.6247  309.2461   85.7863  309.4516   85.7420
  2.780  319.0548   86.8126  316.1123   88.5015  316.1937   88.5681  319.6939   88.2908  320.0100   92.7487  320.2346   92.7037
  2.790  330.6196   94.1517  327.4286   95.8772  327.5122   95.9509  331.2961   95.7995  331.5202  100.5865  331.7666  100.5415
  2.800  343.0215  102.4519  339.5504  104.2071  339.6361  104.2887  343.7338  104.2953  343.8404  109.4489  344.1118  109.4048
  2.810  356.3357  111.8842  352.5480  113.6586  352.6356  113.7492  357.0804  113.9539  357.0370  119.5170  357.3369  119.4750
  2.820  370.6412  122.6573  366.4943  124.4361  366.5837  124.5369  371.4120  124.9904  371.1771  131.0115  371.5099  130.9735
  2.830  386.0185  135.0282  381.4630  136.7903  381.5536  136.9028  386.8049  137.6688  386.3249  144.2034  386.6956  144.1720
  2.840  402.5448  149.3151  397.5234  151.0306  397.6147  151.1566  403.3304  152.3163  402.5359  159.4269  402.9506  159.4055
  2.850  420.2871  165.9136  414.7332  167.5411  414.8244  167.6826  421.0464  169.3392  419.8468  177.0958  420.3125  177.0893
  2.860  439.2889  185.3188  433.1263  186.8002  433.2161  186.9595  439.9838  189.2451  438.2600  197.7244  438.7849  197.7398
  2.870  459.5501  208.1520  452.6919  209.4068  452.7786  209.5866  460.1232  212.6703  457.7179  221.9534  458.3116  222.0004
  2.880  480.9920  235.1949  473.3421  236.1111  473.4233  236.3146  481.3584  240.4125  478.0629  250.5806  478.7360  250.6727
  2.890  503.4032  267.4298  494.8589  267.8523  494.9309  268.0827  503.4371  273.4703  498.9734  284.5938  499.7375  284.7503
  2.900  526.3501  306.0827  516.8098  305.7974  516.8678  306.0584  525.8667  313.0826  519.8652  325.2024  520.7317  325.4502
  2.910  549.0367  352.6618  538.4156  351.3755  538.4530  351.6707  547.7667  360.7589  539.7391  373.8511  540.7170  374.2278
  2.920  570.0870  408.9649  558.3461  406.2822  558.3538  406.6146  567.6434  418.2727  556.9558  432.1871  558.0478  432.7447
  2.930  587.2194  477.0069  574.4175  472.4088  574.3838  472.7803  583.0602  487.5618  568.9203  501.9190  570.1146  502.7269
  2.940  596.7977  558.7640  583.1759  551.6013  583.0860  552.0113  590.1991  570.4281  571.6884  584.4591  572.9456  585.6052
  2.950  593.3015  655.5531  579.4083  645.0837  579.2438  645.5275  583.3775  667.8574  559.5954  680.1865  560.8283  681.7705
  2.960  568.9370  766.7940  555.7817  752.3133  555.5213  752.7799  554.7780  778.7303  525.2019  787.1622  526.2515  789.2720
  2.970  513.9766  887.9647  503.1458  869.0940  502.7659  869.5632  495.0014  897.8193  460.1545  899.3337  460.7760  901.9946
  2.980  418.8921 1008.1117  412.4718  985.2689  411.9493  985.7054  395.4302 1013.5716  357.7409 1004.9175  357.6305 1008.0144
  2.990  279.2797 1108.6703  279.3440 1083.5720  278.6672 1083.9186  253.1112 1107.4886  217.3204 1086.6959  216.2191 1089.9116
  3.000  102.4860 1166.9119  110.0669 1142.6348  109.2581 1142.8164   76.7173 1158.0576   48.7773 1126.3296   46.6332 1129.1826
  3.010  -89.4348 1165.7580  -75.3691 1145.8011  -76.2351 1145.7563 -111.5388 1150.2242 -127.2042 1112.4342 -130.1355 1114.4630
  3.020 -266.6516 1104.4715 -249.1231 1091.0722 -249.9404 1090.7986 -283.1594 1084.8213 -285.9860 1047.3952 -289.2307 1048.3776
  3.030 -405.5344  999.8512 -388.0804  992.9323 -388.7700  992.4933 -416.3903  978.7891 -409.3505  946.5985 -412.4425  946.6160
  3.040 -497.7629  876.2321 -482.7898  873.8705 -483.3365  873.3507 -504.1079  855.4347 -491.3857  830.3845 -494.0367  829.7051
  3.050 -548.7046  754.1901 -536.8409  753.9026 -537.2828  753.3563 -551.7706  734.0529 -536.7552  715.7594 -538.8761  714.6764
  3.060 -570.5998  645.4447 -560.9230  645.3124 -561.3117  644.7359 -570.8126  625.5697 -555.4340  612.7526 -557.0671  611.4866
  3.070 -576.5349  552.3326 -567.2631  551.8959 -567.6049  551.2280 -573.1205  532.6532 -558.2023  524.2391 -559.4348  522.9078
  3.080 -574.1634  469.5382 -564.2849  470.1550 -564.4806  469.3582 -566.2406  451.6970 -552.4409  447.1459 -553.3216  445.8004
  3.090 -561.9430  393.2408 -552.5870  396.1322 -552.5367  395.3206 -550.8156  379.5685 -539.0576  378.0749 -539.6107  376.7945
  3.100 -539.2371  327.3157 -531.7777  331.8345 -531.5407  331.1469 -527.4813  318.1308 -518.1045  318.4028 -518.4116  317.2630
  3.110 -511.1479  274.1596 -505.7587  279.1583 -505.4434  278.6202 -500.2870  268.2976 -492.9583  269.3645 -493.1106  268.3763
  3.120 -482.1140  232.0001 -478.3836  236.8013 -478.0526  236.3815 -472.5721  228.2939 -466.8308  229.6615 -466.8862  228.8056
  3.130 -454.1458  198.2183 -451.6212  202.5490 -451.2993  202.2131 -445.8863  195.8834 -441.3598  197.3209 -441.3512  196.5755
  3.140 -427.9290  170.7278 -426.2570  174.5174 -425.9516  174.2396 -420.7908  169.2806 -417.2048  170.6775 -417.1521  170.0252
  3.150 -403.6155  148.0344 -402.5437  151.2981 -402.2555  151.0610 -397.4283  147.1760 -394.5808  148.4784 -394.4970  147.9052
  3.160 -381.1547  129.0679 -380.5065  131.8533 -380.2336  131.6448 -375.7696  128.6086 -373.5095  129.7911 -373.4036  129.2859
  3.170 -360.4207  113.0443 -360.0725  115.4076 -359.8121  115.2193 -355.7148  112.8593 -353.9264  113.9118 -353.8049  113.4658
  3.180 -341.2631   99.3754 -341.1279  101.3719 -340.8769  101.1978 -337.1366   99.3804 -335.7302  100.3013 -335.5979   99.9070
  3.190 -323.5278   87.6107 -323.5441   89.2910 -323.2995   89.1266 -319.9001   87.7471 -318.8048   88.5396 -318.6652   88.1911
  3.200 -307.0664   77.3996 -307.1900   78.8086 -306.9490   78.6505 -303.8719   77.6258 -303.0311   78.2955 -302.8871   77.9879
  3.210 -291.7390   68.4650 -291.9386   69.6419 -291.6981   69.4873 -288.9243   68.7508 -288.2920   69.3047 -288.1458   69.0339
  3.220 -277.4149   60.5851 -277.6681   61.5641 -277.4251   61.4108 -274.9364   60.9084 -274.4745   61.3539 -274.3283   61.1167
  3.230 -263.9718   53.5802 -264.2629   54.3910 -264.0142   54.2370 -261.7937   53.9245 -261.4704   54.2693 -261.3260   54.0627
  3.240 -251.2937   47.3025 -251.6121   47.9716 -251.3539   47.8152 -249.3867   47.6559 -249.1743   47.9079 -249.0340   47.7295
  3.250 -239.2672   41.6298 -239.6067   42.1809 -239.3348   42.0204 -237.6080   41.9835 -237.4821   42.1512 -237.3481   41.9984
  3.260 -227.7775   36.4597 -228.1359   36.9148 -227.8449   36.7484 -226.3484   36.8080 -226.2866   36.9008 -226.1618   36.7706
  3.270 -216.7011   31.7086 -217.0809   32.0884 -216.7631   31.9145 -215.4908   32.0479 -215.4720   32.0774 -215.3592   31.9659
  3.280 -205.8968   27.3155 -206.3066   27.6393 -205.9509   27.4569 -204.9020   27.6423 -204.9065   27.6238 -204.8081   27.5253
  3.290 -195.1984   23.2552 -195.6549   23.5389 -195.2451   23.3502 -194.4250   23.5622 -194.4358   23.5166 -194.3516   23.4234
  3.300 -184.4179   19.5606 -184.9465   19.8127 -184.4607   19.6278 -183.8794   19.8301 -183.8844   19.7849 -183.8099   19.6893
  3.310 -173.3647   16.3387 -173.9959   16.5565 -173.4116   16.3992 -173.0738   16.5372 -173.0689   16.5262 -172.9953   16.4243
  3.320 -161.8549   13.7699 -162.6235   13.9418 -161.9241   13.8493 -161.8140   13.8510 -161.8041   13.9141 -161.7225   13.8096
  3.330 -149.6914   12.1366 -150.6447   12.2398 -149.8226   12.2615 -149.8883   12.0483 -149.8891   12.2376 -149.7975   12.1389
  3.340 -136.6740   11.9358 -137.8821   11.9150 -136.9414   12.1183 -137.0827   11.6249 -137.1377   12.0164 -137.0436   11.9287
  3.350 -122.7612   14.0539 -124.3046   13.7760 -123.2799   14.2564 -123.3399   13.4687 -123.5670   14.1597 -123.4824   14.0757
  3.360 -108.5245   19.8626 -110.4210   19.0600 -109.4233   19.9331 -109.2127   18.9589 -109.8768   20.0024 -109.8032   19.8960
  3.370  -95.9619   30.7843  -97.9830   29.0751  -97.2541   30.3995  -96.6859   29.5356  -98.2062   30.7375  -98.1079   30.5757
  3.380  -88.9040   46.5382  -90.3949   43.7317  -90.2531   45.3418  -89.5858   44.9308  -92.2195   45.6127  -92.0155   45.4116
  3.390  -90.6945   62.9175  -90.9072   59.5199  -91.4603   60.9791  -91.2293   60.9472  -94.4813   60.2703  -94.1279   60.1402
  3.400  -99.7660   73.7982  -98.6779   70.7849  -99.6345   71.7348 -100.0200   71.5356 -102.8351   69.4074 -102.4153   69.4590
  3.410 -110.4859   76.9775 -108.7680   74.8599 -109.7496   75.3112 -110.4066   74.5846 -112.1595   71.6804 -111.8027   71.9102
  3.420 -118.7268   74.8215 -116.9686   73.4781 -117.8112   73.6217 -118.3904   72.4318 -119.1067   69.4128 -118.8807   69.7443
  3.430 -123.6274   70.4543 -122.0519   69.5850 -122.7555   69.5582 -123.1635   68.0943 -123.0854   65.2971 -122.9962   65.6578
  3.440 -125.9551   65.7781 -124.5711   65.1750 -125.1631   65.0225 -125.4758   63.3568 -124.7919   60.9476 -124.8221   61.2897
  3.450 -126.7437   61.5604 -125.5173   61.1314 -125.9817   60.8605 -126.2348   58.8391 -125.1351   57.0274 -125.2620   57.3184
  3.460 -126.8286   57.9144 -125.7586   57.6054 -126.0397   57.2648 -125.8614   54.7596 -124.8607   53.6188 -125.0564   53.8328
  3.470 -126.7628   54.5896 -125.8338   54.3113 -125.9297   54.0236 -125.1438   51.5138 -124.4206   50.4644 -124.6461   50.5859
  3.480 -126.7191   51.1097 -125.8233   50.8130 -125.8573   50.6562 -124.7087   48.2127 -123.8798   47.2020 -124.0911   47.2384
  3.490 -126.3534   47.1189 -125.4138   46.8967 -125.4935   46.7966 -123.9118   44.4374 -122.9904   43.6693 -123.1592   43.6510
  3.500 -125.1822   42.8179 -124.2697   42.7573 -124.3690   42.6258 -122.3793   40.5374 -121.5078   40.0316 -121.6314   39.9918
  3.510 -123.1388   38.7032 -122.3468   38.7758 -122.4087   38.6132 -120.1687   36.9008 -119.4240   36.5809 -119.5147   36.5391
  3.520 -120.4902   35.0859 -119.8456   35.2203 -119.8568   35.0606 -117.5164   33.7182 -116.9094   33.5078 -116.9798   33.4703
  3.530 -117.5304   32.0278 -117.0157   32.1722 -116.9903   32.0361 -114.6455   31.0105 -114.1587   30.8594 -114.2171   30.8264
  3.540 -114.4599   29.4684 -114.0474   29.5976 -114.0023   29.4891 -111.7048   28.7205 -111.3157   28.6011 -111.3659   28.5710
  3.550 -111.3914   27.3175 -111.0573   27.4222 -111.0039   27.3377 -108.7786   26.7740 -108.4673   26.6718 -108.5110   26.6436
  3.560 -108.3816   25.4922 -108.1085   25.5707 -108.0528   25.5046 -105.9096   25.1042 -105.6603   25.0118 -105.6982   24.9853
  3.570 -105.4559   23.9261 -105.2315   23.9795 -105.1762   23.9270 -103.1170   23.6572 -102.9178   23.5712 -102.9507   23.5466
  3.580 -102.6236   22.5683 -102.4392   22.5987 -102.3853   22.5561 -100.4081   22.3918 -100.2498   22.3107 -100.2785   22.2885
  3.590  -99.8858   21.3807  -99.7349   21.3904  -99.6826   21.3551  -97.7836   21.2765  -97.6591   21.1998  -97.6845   21.1802
  3.600  -97.2397   20.3343  -97.1176   20.3256  -97.0666   20.2957  -95.2411   20.2874  -95.1449   20.2153  -95.1680   20.1982
  3.610  -94.6806   19.4073  -94.5837   19.3823  -94.5339   19.3565  -92.7769   19.4062  -92.7046   19.3392  -92.7260   19.3242
  3.620  -92.2034   18.5827  -92.1290   18.5433  -92.0801   18.5206  -90.3869   18.6184  -90.3348   18.5573  -90.3550   18.5441
  3.630  -89.8028   17.8474  -89.7488   17.7954  -89.7007   17.7750  -88.0666   17.9130  -88.0320   17.8585  -88.0512   17.8468
  3.640  -87.4740   17.1910  -87.4388   17.1281  -87.3911   17.1095  -85.8121   17.2809  -85.7924   17.2339  -85.8108   17.2236
  3.650  -85.2122   16.6054  -85.1947   16.5330  -85.1472   16.5158  -83.6193   16.7151  -83.6126   16.6766  -83.6304   16.6675
  3.660  -83.0131   16.0839  -83.0125   16.0036  -82.9652   15.9873  -81.4848   16.2098  -81.4894   16.1808  -81.5065   16.1727
  3.670  -80.8731   15.6214  -80.8889   15.5344  -80.8414   15.5187  -79.4053   15.7604  -79.4198   15.7420  -79.4363   15.7348
  3.680  -78.7887   15.2136  -78.8206   15.1211  -78.7728   15.1058  -77.3780   15.3630  -77.4012   15.3564  -77.4171   15.3501
  3.690  -76.7568   14.8571  -76.8048   14.7601  -76.7567   14.7450  -75.4004   15.0147  -75.4312   15.0211  -75.4466   15.0156
  3.700  -74.7750   14.5490  -74.8393   14.4487  -74.7906   14.4334  -73.4703   14.7128  -73.5079   14.7334  -73.5228   14.7287
  3.710  -72.8410   14.2872  -72.9220   14.1843  -72.8725   14.1689  -71.5859   14.4553  -71.6296   14.4916  -71.6440   14.4876
  3.720  -70.9531   14.0697  -71.0512   13.9652  -71.0009   13.9493  -69.7457   14.2404  -69.7949   14.2937  -69.8089   14.2904
  3.730  -69.1097   13.8951  -69.2258   13.7895  -69.1744   13.7731  -67.9486   14.0666  -68.0030   14.1385  -68.0166   14.1359
  3.740  -67.3099   13.7617  -67.4447   13.6558  -67.3921   13.6389  -66.1938   13.9326  -66.2530   14.0246  -66.2662   14.0226
  3.750  -65.5527   13.6686  -65.7074   13.5629  -65.6535   13.5451  -64.4806   13.8370  -64.5446   13.9508  -64.5575   13.9494
  3.760  -63.8380   13.6143  -64.0136   13.5092  -63.9581   13.4906  -62.8090   13.7786  -62.8778   13.9160  -62.8903   13.9152
  3.770  -62.1654   13.5977  -62.3633   13.4935  -62.3061   13.4740  -61.1789   13.7560  -61.2526   13.9188  -61.2647   13.9185
  3.780  -60.5350   13.6173  -60.7569   13.5143  -60.6976   13.4938  -59.5906   13.7677  -59.6695   13.9578  -59.6813   13.9580
  3.790  -58.9473   13.6715  -59.1946   13.5698  -59.1332   13.5482  -58.0444   13.8120  -58.1291   14.0313  -58.1404   14.0320
  3.800  -57.4025   13.7586  -57.6771   13.6581  -57.6132   13.6353  -56.5407   13.8869  -56.6318   14.1375  -56.6427   14.1387
  3.810  -55.9010   13.8763  -56.2049   13.7768  -56.1383   13.7529  -55.0802   13.9900  -55.1783   14.2741  -55.1888   14.2757
  3.820  -54.4433   14.0222  -54.7785   13.9232  -54.7090   13.8982  -53.6629   14.1187  -53.7691   14.4385  -53.7791   14.4404
  3.830  -53.0293   14.1935  -53.3982   14.0945  -53.3254   14.0683  -52.2892   14.2699  -52.4045   14.6277  -52.4139   14.6300
  3.840  -51.6590   14.3870  -52.0640   14.2872  -51.9875   14.2599  -50.9587   14.4405  -51.0843   14.8385  -51.0932   14.8413
  3.850  -50.3316   14.5995  -50.7752   14.4978  -50.6948   14.4694  -49.6706   14.6267  -49.8080   15.0674  -49.8163   15.0706
  3.860  -49.0461   14.8273  -49.5311   14.7225  -49.4464   14.6932  -48.4238   14.8249  -48.5745   15.3109  -48.5821   15.3145
  3.870  -47.8006   15.0669  -48.3298   14.9574  -48.2404   14.9273  -47.2164   15.0312  -47.3820   15.5652  -47.3888   15.5693
  3.880  -46.5928   15.3149  -47.1691   15.1989  -47.0747   15.1682  -46.0457   15.2422  -46.2281   15.8269  -46.2342   15.8314
  3.890  -45.4194   15.5682  -46.0460   15.4434  -45.9462   15.4123  -44.9086   15.4543  -45.1097   16.0927  -45.1150   16.0978
  3.900  -44.2768   15.8239  -44.9569   15.6878  -44.8513   15.6566  -43.8010   15.6647  -44.0230   16.3599  -44.0274   16.3656
  3.910  -43.1605   16.0800  -43.8975   15.9296  -43.7858   15.8986  -42.7184   15.8709  -42.9638   16.6263  -42.9673   16.6326
  3.920  -42.0659   16.3349  -42.8633   16.1669  -42.7451   16.1364  -41.6561   16.0711  -41.9274   16.8905  -41.9299   16.8975
  3.930  -40.9877   16.5882  -41.8491   16.3984  -41.7241   16.3688  -40.6085   16.2644  -40.9086   17.1518  -40.9102   17.1596
  3.940  -39.9206   16.8399  -40.8497   16.6238  -40.7176   16.5956  -39.5701   16.4507  -39.9023   17.4105  -39.9030   17.4191
  3.950  -38.8594   17.0913  -39.8600   16.8436  -39.7204   16.8171  -38.5355   16.6304  -38.9034   17.6676  -38.9031   17.6771
  3.960  -37.7988   17.3442  -38.8745   17.0588  -38.7273   17.0346  -37.4989   16.8051  -37.9068   17.9249  -37.9055   17.9354
  3.970  -36.7338   17.6016  -37.8883   17.2713  -37.7331   17.2499  -36.4550   16.9769  -36.9077   18.1853  -36.9054   18.1967
  3.980  -35.6598   17.8671  -36.8966   17.4838  -36.7332   17.4656  -35.3985   17.1486  -35.9016   18.4521  -35.8985   18.4645
  3.990  -34.5728   18.1449  -35.8946   17.6991  -35.7227   17.6847  -34.3245   17.3236  -34.8847   18.7293  -34.8805   18.7427
  4.000  -33.4689   18.4401  -34.8780   17.9211  -34.6975   17.9110  -33.2281   17.5059  -33.8532   19.0216  -33.8482   19.0360
  4.010  -32.3453   18.7583  -33.8428   18.1536  -33.6532   18.1483  -32.1049   17.7001  -32.8042   19.3339  -32.7982   19.3493
  4.020  -31.1996   19.1053  -32.7848   18.4012  -32.5859   18.4013  -30.9506   17.9111  -31.7350   19.6719  -31.7281   19.6881
  4.030  -30.0301   19.4875  -31.7002   18.6688  -31.4916   18.6748  -29.7610   18.1443  -30.6436   20.0413  -30.6356   20.0582
  4.040  -28.8359   19.9114  -30.5850   18.9617  -30.3663   18.9743  -28.5320   18.4058  -29.5283   20.4481  -29.5191   20.4657
  4.050  -27.6170   20.3835  -29.4350   19.2861  -29.2057   19.3060  -27.2595   18.7021  -28.3876   20.8986  -28.3772   20.9168
  4.060  -26.3738   20.9096  -28.2458   19.6488  -28.0054   19.6767  -25.9393   19.0405  -27.2205   21.3991  -27.2085   21.4176
  4.070  -25.1070   21.4952  -27.0127   20.0578  -26.7604   20.0947  -24.5672   19.4291  -26.0256   21.9559  -26.0116   21.9747
  4.080  -23.8172   22.1440  -25.7305   20.5227  -25.4654   20.5695  -23.1387   19.8771  -24.8009   22.5755  -24.7845   22.5945
  4.090  -22.5028   22.8587  -24.3937   21.0549  -24.1147   21.1129  -21.6491   20.3949  -23.5431   23.2647  -23.5239   23.2838
  4.100  -21.1590   23.6409  -22.9965   21.6688  -22.7023   21.7396  -20.0934   20.9946  -22.2467   24.0318  -22.2242   24.0510
  4.110  -19.7750   24.4934  -21.5335   22.3821  -21.2227   22.4678  -18.4663   21.6902  -20.9036   24.8879  -20.8772   24.9070
  4.120  -18.3329   25.4243  -20.0003   23.2172  -19.6710   23.3203  -16.7625   22.4986  -19.5025   25.8500  -19.4715   25.8685
  4.130  -16.8084   26.4519  -18.3944   24.2014  -18.0449   24.3256  -14.9762   23.4396  -18.0311   26.9435  -17.9938   26.9607
  4.140  -15.1758   27.6110  -16.7176   25.3683  -16.3460   25.5182  -13.1023   24.5373  -16.4788   28.2056  -16.4324   28.2210
  4.150  -13.4152   28.9549  -14.9776   26.7582  -14.5824   26.9396  -11.1358   25.8213  -14.8418   29.6872  -14.7821   29.7016
  4.160  -11.5211   30.5532  -13.1916   28.4172  -12.7717   28.6378   -9.0734   27.3274  -13.1296   31.4525  -13.0515   31.4691
  4.170   -9.5077   32.4874  -11.3888   30.3970  -10.9444   30.6662   -6.9144   29.1000  -11.3714   33.5768  -11.2701   33.6019
  4.180   -7.4103   34.8459   -9.6148   32.7516   -9.1481   33.0812   -4.6626   31.1940   -9.6217   36.1420   -9.4950   36.1852
  4.190   -5.2876   37.7224   -7.9347   35.5347   -7.4506   35.9383   -2.3288   33.6771   -7.9668   39.2307   -7.8167   39.3035
  4.200   -3.2259   41.2160   -6.4358   38.7934   -5.9439   39.2862    0.0638   36.6332   -6.5296   42.9181   -6.3631   43.0320
  4.210   -1.3488   45.4303   -5.2302   42.5615   -4.7454   43.1597    2.4732   40.1652   -5.4756   47.2614   -5.3048   47.4250
  4.220    0.1678   50.4663   -4.4542   46.8507   -3.9988   47.5698    4.8271   44.3982   -5.0178   52.2832   -4.8583   52.5003
  4.230    1.0758   56.4048   -4.2653   51.6406   -3.8702   52.4925    7.0062   49.4793   -5.4181   57.9477   -5.2869   58.2160
  4.240    1.0381   63.2704   -4.8361   56.8683   -4.5416   57.8578    8.8194   55.5727   -6.9795   64.1269   -6.8917   64.4378
  4.250   -0.3734   70.9721   -6.3433   62.4201   -6.1983   63.5398    9.9694   62.8405  -10.0171   70.5586   -9.9838   70.8985
  4.260   -3.6430   79.2245   -8.9562   68.1262   -9.0150   69.3503   10.0117   71.3999  -14.7959   76.8065  -14.8226   77.1596
  4.270   -9.2111   87.4753  -12.8256   73.7559  -13.1406   75.0342    8.3186   81.2339  -21.4241   82.2528  -21.5111   82.6033
  4.280  -17.3084   94.8948  -18.0731   79.0055  -18.6827   80.2601    4.0866   92.0411  -29.7203   86.1679  -29.8641   86.5011
  4.290  -27.7761  100.4886  -24.7629   83.4728  -25.6749   84.6020   -3.5370  103.0327  -39.1246   87.8905  -39.3183   88.1926
  4.300  -39.9765  103.3270  -32.8273   86.6356  -34.0026   87.5286  -15.1176  112.7804  -48.7565   87.0728  -48.9884   87.3318
  4.310  -52.8548  102.8004  -41.9358   87.8991  -43.2817   88.4644  -30.3992  119.3505  -57.6558   83.8453  -57.9092   84.0541
  4.320  -65.1301   98.8141  -51.3951   86.7893  -52.7796   86.9867  -47.8912  120.9524  -65.0827   78.7657  -65.3397   78.9256
  4.330  -75.5827   91.8760  -60.2476   83.2360  -61.5363   83.0942  -65.1184  116.8857  -70.6907   72.5875  -70.9374   72.7069
  4.340  -83.3905   82.9952  -67.6078   77.7056  -68.7042   77.3081  -79.6334  108.0190  -74.4999   66.0123  -74.7290   66.1026
  4.350  -88.3375   73.3565  -72.9969   71.0169  -73.8607   70.4674  -90.0386   96.2950  -76.7557   59.5533  -76.9658   59.6253
  4.360  -90.7407   63.9521  -76.4141   63.9958  -77.0527   63.3856  -96.2285   83.7445  -77.7850   53.5177  -77.9778   53.5794
  4.370  -91.1876   55.3947  -78.1700   57.2397  -78.6175   56.6329  -98.9343   71.8125  -77.9036   48.0506  -78.0823   48.1069
  4.380  -90.2890   47.9418  -78.6760   51.0732  -78.9742   50.5065  -99.1436   61.2371  -77.3765   43.1913  -77.5444   43.2452
  4.390  -88.5484   41.6147  -78.3110   45.6147  -78.4987   45.1052  -97.7439   52.2375  -76.4093   38.9197  -76.5691   38.9727
  4.400  -86.3313   36.3142  -77.3725   40.8624  -77.4815   40.4142  -95.4013   44.7458  -75.1542   35.1866  -75.3080   35.2394
  4.410  -83.8823   31.8971  -76.0752   36.7566  -76.1297   36.3674  -92.5677   38.5736  -73.7208   31.9323  -73.8701   31.9850
  4.420  -81.3568   28.2174  -74.5669   33.2181  -74.5845   32.8822  -89.5303   33.5042  -72.1863   29.0960  -72.3323   29.1487
  4.430  -78.8490   25.1436  -72.9467   30.1663  -72.9398   29.8770  -86.4628   29.3349  -70.6044   26.6211  -70.7478   26.6738
  4.440  -76.4130   22.5642  -71.2797   27.5274  -71.2570   27.2781  -83.4652   25.8922  -69.0117   24.4568  -69.1531   24.5094
  4.450  -74.0777   20.3880  -69.6079   25.2376  -69.5755   25.0221  -80.5912   23.0338  -67.4328   22.5590  -67.5727   22.6115
  4.460  -71.8565   18.5409  -67.9582   23.2427  -67.9200   23.0555  -77.8661   20.6458  -65.8837   20.8897  -66.0224   20.9421
  4.470  -69.7533   16.9638  -66.3471   21.4972  -66.3059   21.3339  -75.2988   18.6376  -64.3748   19.4166  -64.5125   19.4688
  4.480  -67.7663   15.6090  -64.7841   19.9634  -64.7417   19.8200  -72.8883   16.9376  -62.9118   18.1121  -63.0487   18.1643
  4.490  -65.8909   14.4386  -63.2746   18.6100  -63.2320   18.4832  -70.6282   15.4892  -61.4980   16.9532  -61.6343   17.0054
  4.500  -64.1206   13.4218  -61.8207   17.4110  -61.7787   17.2980  -68.5095   14.2475  -60.1345   15.9201  -60.2704   15.9723
  4.510  -62.4484   12.5338  -60.4226   16.3445  -60.3816   16.2431  -66.5221   13.1767  -58.8211   14.9961  -58.9568   15.0486
  4.520  -60.8670   11.7544  -59.0794   15.3924  -59.0395   15.3006  -64.6556   12.2480  -57.5569   14.1673  -57.6924   14.2199
  4.530  -59.3696   11.0673  -57.7894   14.5395  -57.7506   14.4558  -62.8999   11.4384  -56.3402   13.4215  -56.4757   13.4744
  4.540  -57.9493   10.4588  -56.5503   13.7729  -56.5125   13.6959  -61.2454   10.7291  -55.1690   12.7485  -55.3046   12.8019
  4.550  -56.5999    9.9179  -55.3596   13.0818  -55.3227   13.0104  -59.6834   10.1048  -54.0412   12.1396  -54.1771   12.1935
  4.560  -55.3158    9.4353  -54.2147   12.4569  -54.1786   12.3901  -58.2057    9.5531  -52.9546   11.5873  -53.0909   11.6418
  4.570  -54.0916    9.0033  -53.1132   11.8904  -53.0776   11.8275  -56.8051    9.0636  -51.9070   11.0852  -52.0438   11.1403
  4.580  -52.9226    8.6153  -52.0523   11.3756  -52.0171   11.3158  -55.4747    8.6278  -50.8961   10.6276  -51.0335   10.6835
  4.590  -51.8042    8.2659  -51.0298   10.9066  -50.9947   10.8494  -54.2088    8.2384  -49.9198   10.2099  -50.0580   10.2666
  4.600  -50.7327    7.9505  -50.0431   10.4786  -50.0079   10.4235  -53.0017    7.8896  -48.9760    9.8278  -49.1152    9.8854
  4.610  -49.7042    7.6651  -49.0902   10.0871  -49.0547   10.0337  -51.8486    7.5763  -48.0629    9.4777  -48.2031    9.5362
  4.620  -48.7156    7.4065  -48.1689    9.7285  -48.1329    9.6764  -50.7451    7.2942  -47.1785    9.1564  -47.3199    9.2161
  4.630  -47.7637    7.1717  -47.2772    9.3995  -47.2406    9.3484  -49.6873    7.0397  -46.3212    8.8613  -46.4638    8.9220
  4.640  -46.8460    6.9582  -46.4133    9.0973  -46.3758    9.0469  -48.6714    6.8098  -45.4892    8.5898  -45.6333    8.6518
  4.650  -45.9599    6.7640  -45.5755    8.8193  -45.5369    8.7695  -47.6943    6.6017  -44.6810    8.3399  -44.8268    8.4031
  4.660  -45.1031    6.5871  -44.7621    8.5635  -44.7223    8.5139  -46.7530    6.4133  -43.8953    8.1096  -44.0428    8.1742
  4.670  -44.2735    6.4261  -43.9717    8.3279  -43.9305    8.2784  -45.8447    6.2426  -43.1306    7.8974  -43.2799    7.9635
  4.680  -43.4692    6.2794  -43.2028    8.1107  -43.1600    8.0612  -44.9671    6.0879  -42.3856    7.7017  -42.5370    7.7693
  4.690  -42.6886    6.1459  -42.4541    7.9106  -42.4096    7.8609  -44.1179    5.9477  -41.6593    7.5214  -41.8128    7.5906
  4.700  -41.9299    6.0245  -41.7245    7.7263  -41.6780    7.6762  -43.2951    5.8208  -40.9504    7.3552  -41.1063    7.4261
  4.710  -41.1917    5.9144  -41.0126    7.5564  -40.9640    7.5059  -42.4968    5.7061  -40.2579    7.2022  -40.4163    7.2748
  4.720  -40.4727    5.8146  -40.3175    7.4001  -40.2667    7.3491  -41.7213    5.6025  -39.5808    7.0614  -39.7419    7.1358
  4.730  -39.7715    5.7245  -39.6382    7.2563  -39.5850    7.2047  -40.9670    5.5094  -38.9182    6.9320  -39.0822    7.0083
  4.740  -39.0870    5.6435  -38.9737    7.1244  -38.9178    7.0720  -40.2325    5.4259  -38.2692    6.8134  -38.4363    6.8917
  4.750  -38.4181    5.5710  -38.3231    7.0035  -38.2645    6.9504  -39.5163    5.3514  -37.6331    6.7050  -37.8034    6.7853
  4.760  -37.7639    5.5066  -37.6856    6.8931  -37.6241    6.8390  -38.8174    5.2854  -37.0089    6.6061  -37.1827    6.6886
  4.770  -37.1233    5.4498  -37.0604    6.7925  -36.9957    6.7376  -38.1345    5.2274  -36.3961    6.5163  -36.5736    6.6011
  4.780  -36.4955    5.4004  -36.4468    6.7014  -36.3788    6.6454  -37.4665    5.1770  -35.7939    6.4352  -35.9752    6.5223
  4.790  -35.8796    5.3580  -35.8440    6.6191  -35.7726    6.5621  -36.8125    5.1338  -35.2016    6.3624  -35.3871    6.4519
  4.800  -35.2749    5.3223  -35.2515    6.5455  -35.1763    6.4874  -36.1716    5.0975  -34.6186    6.2976  -34.8085    6.3896
  4.810  -34.6807    5.2931  -34.6685    6.4802  -34.5894    6.4208  -35.5427    5.0680  -34.0443    6.2404  -34.2389    6.3351
  4.820  -34.0963    5.2704  -34.0945    6.4228  -34.0113    6.3622  -34.9252    5.0449  -33.4782    6.1908  -33.6777    6.2881
  4.830  -33.5210    5.2539  -33.5289    6.3731  -33.4414    6.3112  -34.3183    5.0281  -32.9197    6.1484  -33.1244    6.2486
  4.840  -32.9543    5.2435  -32.9711    6.3310  -32.8792    6.2678  -33.7212    5.0176  -32.3683    6.1131  -32.5786    6.2162
  4.850  -32.3955    5.2391  -32.4208    6.2962  -32.3241    6.2317  -33.1333    5.0131  -31.8235    6.0848  -32.0396    6.1910
  4.860  -31.8442    5.2408  -31.8774    6.2688  -31.7756    6.2027  -32.5538    5.0146  -31.2848    6.0634  -31.5072    6.1727
  4.870  -31.2998    5.2485  -31.3404    6.2485  -31.2333    6.1809  -31.9823    5.0221  -30.7518    6.0488  -30.9808    6.1615
  4.880  -30.7618    5.2622  -30.8093    6.2353  -30.6967    6.1662  -31.4180    5.0356  -30.2240    6.0410  -30.4600    6.1571
  4.890  -30.2297    5.2819  -30.2839    6.2292  -30.1653    6.1585  -30.8606    5.0551  -29.7010    6.0400  -29.9445    6.1597
  4.900  -29.7032    5.3078  -29.7636    6.2302  -29.6388    6.1579  -30.3093    5.0807  -29.1825    6.0458  -29.4339    6.1693
  4.910  -29.1819    5.3399  -29.2481    6.2383  -29.1168    6.1643  -29.7638    5.1124  -28.6679    6.0586  -28.9277    6.1859
  4.920  -28.6652    5.3783  -28.7371    6.2536  -28.5988    6.1779  -29.2236    5.1504  -28.1570    6.0783  -28.4258    6.2096
  4.930  -28.1529    5.4232  -28.2302    6.2762  -28.0846    6.1987  -28.6882    5.1948  -27.6494    6.1051  -27.9277    6.2406
  4.940  -27.6447    5.4747  -27.7270    6.3062  -27.5737    6.2269  -28.1571    5.2457  -27.1447    6.1391  -27.4332    6.2790
  4.950  -27.1401    5.5331  -27.2273    6.3438  -27.0658    6.2626  -27.6301    5.3035  -26.6426    6.1806  -26.9420    6.3250
  4.960  -26.6389    5.5986  -26.7309    6.3891  -26.5606    6.3060  -27.1066    5.3681  -26.1427    6.2296  -26.4538    6.3788
  4.970  -26.1409    5.6714  -26.2373    6.4424  -26.0578    6.3573  -26.5863    5.4401  -25.6449    6.2866  -25.9683    6.4407
  4.980  -25.6457    5.7518  -25.7465    6.5039  -25.5572    6.4168  -26.0688    5.5195  -25.1486    6.3516  -25.4855    6.5109
  4.990  -25.1531    5.8401  -25.2581    6.5739  -25.0583    6.4847  -25.5539    5.6067  -24.6538    6.4251  -25.0049    6.5898
  5.000  -24.6630    5.9367  -24.7720    6.6526  -24.5612    6.5613  -25.0412    5.7022  -24.1601    6.5074  -24.5267    6.6776
  5.010  -24.1752    6.0418  -24.2881    6.7405  -24.0654    6.6470  -24.5305    5.8061  -23.6673    6.5987  -24.0504    6.7748
  5.020  -23.6895    6.1558  -23.8063    6.8378  -23.5708    6.7421  -24.0214    5.9191  -23.1752    6.6997  -23.5762    6.8817
  5.030  -23.2059    6.2793  -23.3263    6.9449  -23.0772    6.8470  -23.5138    6.0414  -22.6835    6.8105  -23.1038    6.9989
  5.040  -22.7242    6.4125  -22.8483    7.0623  -22.5845    6.9621  -23.0074    6.1735  -22.1921    6.9319  -22.6334    7.1267
  5.050  -22.2446    6.5558  -22.3722    7.1903  -22.0926    7.0878  -22.5021    6.3160  -21.7008    7.0642  -22.1649    7.2657
  5.060  -21.7669    6.7098  -21.8979    7.3294  -21.6014    7.2246  -21.9977    6.4694  -21.2095    7.2080  -21.6984    7.4164
  5.070  -21.2913    6.8749  -21.4257    7.4800  -21.1107    7.3729  -21.4940    6.6343  -20.7181    7.3638  -21.2340    7.5793
  5.080  -20.8179    7.0514  -20.9557    7.6425  -20.6207    7.5333  -20.9911    6.8111  -20.2265    7.5323  -20.7721    7.7550
  5.090  -20.3469    7.2398  -20.4880    7.8174  -20.1312    7.7061  -20.4887    7.0005  -19.7345    7.7141  -20.3128    7.9441
  5.100  -19.8784    7.4404  -20.0229    8.0051  -19.6423    7.8919  -19.9870    7.2032  -19.2423    7.9099  -19.8565    8.1470
  5.110  -19.4128    7.6536  -19.5606    8.2060  -19.1540    8.0910  -19.4857    7.4197  -18.7497    8.1204  -19.4036    8.3645
  5.120  -18.9501    7.8795  -19.1015    8.4202  -18.6662    8.3040  -18.9850    7.6508  -18.2568    8.3461  -18.9547    8.5968
  5.130  -18.4907    8.1184  -18.6459    8.6481  -18.1789    8.5312  -18.4848    7.8969  -17.7634    8.5880  -18.5104    8.8446
  5.140  -18.0347    8.3703  -18.1941    8.8897  -17.6920    8.7730  -17.9850    8.1589  -17.2695    8.8468  -18.0714    9.1080
  5.150  -17.5822    8.6351  -17.7464    9.1451  -17.2053    9.0298  -17.4854    8.4373  -16.7751    9.1232  -17.6383    9.3875
  5.160  -17.1331    8.9126  -17.3028    9.4141  -16.7182    9.3019  -16.9858    8.7330  -16.2798    9.4182  -17.2120    9.6830
  5.170  -16.6870    9.2025  -16.8633    9.6966  -16.2302    9.5898  -16.4859    9.0466  -15.7833    9.7329  -16.7931    9.9945
  5.180  -16.2432    9.5045  -16.4275    9.9922  -15.7403    9.8940  -15.9850    9.3793  -15.2851   10.0684  -16.3823   10.3218
  5.190  -15.8004    9.8184  -15.9948   10.3005  -15.2471   10.2154  -15.4823    9.7322  -14.7846   10.4262  -15.9801   10.6643
  5.200  -15.3567   10.1438  -15.5638   10.6215  -14.7489   10.5553  -14.9766   10.1069  -14.2809   10.8084  -15.5868   11.0214
  5.210  -14.9093   10.4813  -15.1328   10.9550  -14.2436   10.9157  -14.4667   10.5057  -13.7729   11.2175  -15.2020   11.3922
  5.220  -14.4547   10.8320  -14.6990   11.3017  -13.7286   11.2995  -13.9507   10.9317  -13.2597   11.6571  -14.8252   11.7757
  5.230  -13.9884   11.1985  -14.2592   11.6631  -13.2015   11.7110  -13.4273   11.3893  -12.7404   12.1318  -14.4547   12.1713
  5.240  -13.5054   11.5856  -13.8096   12.0423  -12.6599   12.1562  -12.8951   11.8845  -12.2150   12.6477  -14.0881   12.5784
  5.250  -13.0008   12.0007  -13.3459   12.4444  -12.1026   12.6431  -12.3541   12.4253  -11.6847   13.2123  -13.7220   12.9975
  5.260  -12.4712   12.4551  -12.8649   12.8769  -11.5302   13.1814  -11.8065   13.0213  -11.1530   13.8343  -13.3518   13.4307
  5.270  -11.9166   12.9633  -12.3652   13.3503  -10.9460   13.7823  -11.2576   13.6840  -10.6265   14.5234  -12.9729   13.8820
  5.280  -11.3427   13.5419  -11.8489   13.8771  -10.3575   14.4576  -10.7180   14.4242  -10.1156   15.2881  -12.5809   14.3585
  5.290  -10.7622   14.2068  -11.3230   14.4702   -9.7758   15.2176  -10.2030   15.2507   -9.6346   16.1344  -12.1729   14.8701
  5.300  -10.1946   14.9690  -10.7999   15.1405   -9.2158   16.0698   -9.7316   16.1665   -9.2003   17.0638  -11.7494   15.4291
  5.310   -9.6625   15.8319  -10.2951   15.8942   -8.6945   17.0174   -9.3240   17.1677   -8.8294   18.0723  -11.3152   16.0488
  5.320   -9.1876   16.7905   -9.8247   16.7319   -8.2286   18.0592   -8.9965   18.2439   -8.5359   19.1511  -10.8793   16.7422
  5.330   -8.7863   17.8341   -9.4024   17.6500   -7.8329   19.1905   -8.7600   19.3814   -8.3292   20.2891  -10.4552   17.5198
  5.340   -8.4687   18.9505   -9.0387   18.6432   -7.5198   20.4049   -8.6191   20.5669   -8.2143   21.4755  -10.0589   18.3889
  5.350   -8.2403   20.1294   -8.7410   19.7071   -7.2994   21.6964   -8.5747   21.7908   -8.1937   22.7027   -9.7081   19.3532
  5.360   -8.1047   21.3641   -8.5162   20.8393   -7.1814   23.0599   -8.6274   23.0476   -8.2696   23.9657   -9.4213   20.4130
  5.370   -8.0663   22.6511   -8.3723   22.0389   -7.1763   24.4916   -8.7800   24.3348   -8.4463   25.2623   -9.2169   21.5657
  5.380   -8.1322   23.9884   -8.3200   23.3057   -7.2972   25.9874   -9.0384   25.6508   -8.7313   26.5906   -9.1137   22.8060
  5.390   -8.3132   25.3738   -8.3729   24.6385   -7.5600   27.5417   -9.4126   26.9930   -9.1356   27.9472   -9.1305   24.1262
  5.400   -8.6234   26.8030   -8.5476   26.0336   -7.9835   29.1456   -9.9152   28.3556   -9.6729   29.3258   -9.2865   25.5153
  5.410   -9.0794   28.2677   -8.8631   27.4835   -8.5889   30.7850  -10.5609   29.7286  -10.3588   30.7154   -9.6010   26.9584
  5.420   -9.6995   29.7546   -9.3399   28.9754   -9.3975   32.4391  -11.3646   31.0968  -11.2090   32.0994  -10.0927   28.4366
  5.430  -10.5018   31.2441   -9.9987   30.4908  -10.4296   34.0796  -12.3398   32.4392  -12.2377   33.4555  -10.7788   29.9255
  5.440  -11.5022   32.7100  -10.8581   32.0041  -11.7009   35.6699  -13.4968   33.7292  -13.4555   34.7549  -11.6732   31.3952
  5.450  -12.7119   34.1191  -11.9333   33.4828  -13.2204   37.1657  -14.8406   34.9349  -14.8673   35.9638  -12.7851   32.8103
  5.460  -14.1355   35.4329  -13.2327   34.8879  -14.9862   38.5167  -16.3689   36.0205  -16.4698   37.0440  -14.1165   34.1304
  5.470  -15.7681   36.6085  -14.7563   36.1752  -16.9837   39.6693  -18.0704   36.9484  -18.2504   37.9558  -15.6600   35.3122
  5.480  -17.5937   37.6019  -16.4926   37.2980  -19.1831   40.5712  -19.9238   37.6819  -20.1858   38.6605  -17.3973   36.3116
  5.490  -19.5843   38.3712  -18.4176   38.2102  -21.5396   41.1760  -21.8981   38.1882  -22.2418   39.1238  -19.2984   37.0876
  5.500  -21.7004   38.8809  -20.4945   38.8706  -23.9949   41.4491  -23.9532   38.4418  -24.3748   39.3194  -21.3220   37.6060
  5.510  -23.8928   39.1052  -22.6754   39.2472  -26.4814   41.3715  -26.0424   38.4273  -26.5345   39.2325  -23.4179   37.8432
  5.520  -26.1063   39.0317  -24.9039   39.3210  -28.9280   40.9431  -28.1158   38.1410  -28.6671   38.8608  -25.5303   37.7891
  5.530  -28.2837   38.6621  -27.1201   39.0881  -31.2659   40.1827  -30.1240   37.5920  -30.7200   38.2161  -27.6026   37.4481
  5.540  -30.3708   38.0126  -29.2653   38.5602  -33.4355   39.1259  -32.0221   36.8005  -32.6458   37.3225  -29.5822   36.8389
  5.550  -32.3202   37.1116  -31.2872   37.7631  -35.3900   37.8209  -33.7724   35.7965  -34.4057   36.2141  -31.4243   35.9920
  5.560  -34.0948   35.9970  -33.1432   36.7336  -37.0984   36.3230  -35.3467   34.6163  -35.9717   34.9317  -33.0950   34.9461
  5.570  -35.6691   34.7116  -34.8032   35.5153  -38.5458   34.6895  -36.7271   33.2994  -37.3272   33.5188  -34.5722   33.7442
  5.580  -37.0293   33.3001  -36.2495   34.1548  -39.7311   32.9749  -37.9054   31.8857  -38.4666   32.0184  -35.8455   32.4299
  5.590  -38.1722   31.8054  -37.4764   32.6972  -40.6650   31.2275  -38.8824   30.4124  -39.3937   30.4704  -36.9147   31.0439
  5.600  -39.1034   30.2665  -38.4877   31.1841  -41.3665   29.4875  -39.6657   28.9128  -40.1194   28.9092  -37.7877   29.6224
  5.610  -39.8351   28.7165  -39.2951   29.6509  -41.8596   27.7868  -40.2682   27.4152  -40.6599   27.3634  -38.4781   28.1955
  5.620  -40.3838   27.1827  -39.9149   28.1269  -42.1707   26.1484  -40.7058   25.9422  -41.0342   25.8553  -39.0028   26.7871
  5.630  -40.7685   25.6862  -40.3666   26.6346  -42.3266   24.5880  -40.9962   24.5113  -41.2624   24.4013  -39.3808   25.4149
  5.640  -41.0090   24.2426  -40.6702   25.1904  -42.3526   23.1150  -41.1576   23.1353  -41.3649   23.0128  -39.6306   24.0915
  5.650  -41.1249   22.8624  -40.8458   23.8056  -42.2720   21.7336  -41.2078   21.8228  -41.3608   21.6964  -39.7705   22.8251
  5.660  -41.1346   21.5523  -40.9121   22.4872  -42.1053   20.4445  -41.1634   20.5790  -41.2676   20.4558  -39.8167   21.6202
  5.670  -41.0550   20.3159  -40.8861   21.2388  -41.8701   19.2454  -41.0396   19.4063  -41.1011   19.2915  -39.7842   20.4788
  5.680  -40.9013   19.1539  -40.7829   20.0615  -41.5812   18.1323  -40.8501   18.3051  -40.8749   18.2025  -39.6856   19.4010
  5.690  -40.6869   18.0657  -40.6157   18.9548  -41.2508   17.1003  -40.6069   17.2743  -40.6008   17.1862  -39.5321   18.3856
  5.700  -40.4232   17.0491  -40.3959   17.9168  -40.8888   16.1438  -40.3203   16.3117  -40.2887   16.2393  -39.3330   17.4305
  5.710  -40.1201   16.1011  -40.1331   16.9450  -40.5033   15.2573  -39.9994   15.4143  -39.9470   15.3578  -39.0963   16.5332
  5.720  -39.7861   15.2182  -39.8357   16.0362  -40.1006   14.4353  -39.6517   14.5786  -39.5827   14.5378  -38.8288   15.6909
  5.730  -39.4282   14.3966  -39.5105   15.1872  -39.6860   13.6726  -39.2836   13.8009  -39.2016   13.7751  -38.5363   14.9009
  5.740  -39.0523   13.6323  -39.1637   14.3944  -39.2635   12.9644  -38.9005   13.0775  -38.8083   13.0656  -38.2236   14.1601
  5.750  -38.6634   12.9215  -38.8001   13.6545  -38.8363   12.3062  -38.5068   12.4045  -38.4067   12.4054  -37.8949   13.4658
  5.760  -38.2655   12.2604  -38.4240   12.9640  -38.4072   11.6939  -38.1061   11.7785  -38.0001   11.7909  -37.5539   12.8152
  5.770  -37.8620   11.6453  -38.0390   12.3196  -37.9782   11.1239  -37.7014   11.1958  -37.5911   11.2185  -37.2037   12.2055
  5.780  -37.4556   11.0726  -37.6481   11.7183  -37.5510   10.5927  -37.2953   10.6531  -37.1818   10.6849  -36.8468   11.6343
  5.790  -37.0485   10.5393  -37.2539   11.1569  -37.1269   10.0973  -36.8897   10.1475  -36.7739   10.1873  -36.4855   11.0990
  5.800  -36.6426   10.0421  -36.8584   10.6327  -36.7072    9.6349  -36.4861    9.6759  -36.3688    9.7228  -36.1218   10.5973
  5.810  -36.2394    9.5783  -36.4633   10.1429  -36.2926    9.2028  -36.0859    9.2357  -35.9675    9.2888  -35.7573   10.1269
  5.820  -35.8400    9.1454  -36.0702    9.6850  -35.8838    8.7988  -35.6900    8.8245  -35.5711    8.8830  -35.3933    9.6856
  5.830  -35.4452    8.7408  -35.6801    9.2567  -35.4813    8.4206  -35.2993    8.4400  -35.1801    8.5032  -35.0310    9.2716
  5.840  -35.0559    8.3623  -35.2939    8.8557  -35.0857    8.0663  -34.9143    8.0801  -34.7950    8.1474  -34.6713    8.8828
  5.850  -34.6726    8.0080  -34.9125    8.4801  -34.6971    7.7341  -34.5356    7.7430  -34.4164    7.8138  -34.3150    8.5176
  5.860  -34.2957    7.6759  -34.5365    8.1279  -34.3158    7.4224  -34.1633    7.4267  -34.0444    7.5007  -33.9627    8.1742
  5.870  -33.9254    7.3644  -34.1662    7.7974  -33.9418    7.1295  -33.7978    7.1298  -33.6793    7.2065  -33.6149    7.8512
  5.880  -33.5620    7.0719  -33.8020    7.4870  -33.5754    6.8541  -33.4392    6.8508  -33.3211    6.9299  -33.2720    7.5472
  5.890  -33.2055    6.7970  -33.4442    7.1953  -33.2164    6.5949  -33.0876    6.5883  -32.9700    6.6695  -32.9343    7.2607
  5.900  -32.8561    6.5383  -33.0930    6.9207  -32.8648    6.3508  -32.7430    6.3412  -32.6259    6.4241  -32.6021    6.9905
  5.910  -32.5138    6.2946  -32.7483    6.6622  -32.5207    6.1206  -32.4054    6.1082  -32.2888    6.1927  -32.2754    6.7356
  5.920  -32.1785    6.0649  -32.4104    6.4185  -32.1839    5.9033  -32.0747    5.8884  -31.9587    5.9743  -31.9544    6.4949
  5.930  -31.8501    5.8481  -32.0791    6.1886  -31.8542    5.6981  -31.7508    5.6808  -31.6354    5.7679  -31.6392    6.2674
  5.940  -31.5286    5.6433  -31.7544    5.9715  -31.5316    5.5041  -31.4337    5.4846  -31.3189    5.5727  -31.3298    6.0521
  5.950  -31.2138    5.4497  -31.4363    5.7662  -31.2160    5.3205  -31.1232    5.2989  -31.0091    5.3879  -31.0261    5.8483
  5.960  -30.9056    5.2665  -31.1248    5.5721  -30.9071    5.1465  -30.8192    5.1231  -30.7057    5.2128  -30.7282    5.6552
  5.970  -30.6039    5.0929  -30.8196    5.3882  -30.6048    4.9817  -30.5216    4.9564  -30.4087    5.0468  -30.4360    5.4721
  5.980  -30.3086    4.9283  -30.5207    5.2140  -30.3089    4.8252  -30.2301    4.7983  -30.1179    4.8892  -30.1493    5.2984
  5.990  -30.0194    4.7722  -30.2279    5.0487  -30.0193    4.6767  -29.9447    4.6481  -29.8331    4.7395  -29.8682    5.1333
  6.000  -29.7362    4.6239  -29.9412    4.8918  -29.7359    4.5355  -29.6651    4.5054  -29.5542    4.5972  -29.5925    4.9764
  6.010  -29.4589    4.4829  -29.6603    4.7427  -29.4583    4.4012  -29.3913    4.3697  -29.2811    4.4618  -29.3221    4.8271
  6.020  -29.1874    4.3488  -29.3851    4.6009  -29.1866    4.2734  -29.1231    4.2405  -29.0135    4.3329  -29.0569    4.6850
  6.030  -28.9213    4.2211  -29.1155    4.4659  -28.9204    4.1516  -28.8602    4.1174  -28.7514    4.2100  -28.7968    4.5496
  6.040  -28.6607    4.0995  -28.8514    4.3374  -28.6596    4.0355  -28.6027    4.0000  -28.4945    4.0928  -28.5416    4.4205
  6.050  -28.4053    3.9835  -28.5925    4.2149  -28.4042    3.9247  -28.3502    3.8881  -28.2428    3.9809  -28.2914    4.2973
  6.060  -28.1549    3.8728  -28.3388    4.0980  -28.1538    3.8189  -28.1027    3.7812  -27.9960    3.8740  -28.0458    4.1797
  6.070  -27.9095    3.7671  -28.0900    3.9864  -27.9084    3.7178  -27.8601    3.6790  -27.7540    3.7719  -27.8049    4.0673
  6.080  -27.6689    3.6660  -27.8462    3.8798  -27.6678    3.6211  -27.6220    3.5813  -27.5167    3.6742  -27.5685    3.9598
  6.090  -27.4329    3.5694  -27.6070    3.7779  -27.4319    3.5286  -27.3886    3.4879  -27.2839    3.5807  -27.3364    3.8570
  6.100  -27.2014    3.4770  -27.3724    3.6804  -27.2005    3.4400  -27.1595    3.3984  -27.0555    3.4911  -27.1086    3.7585
  6.110  -26.9743    3.3884  -27.1422    3.5870  -26.9735    3.3551  -26.9347    3.3126  -26.8314    3.4052  -26.8849    3.6642
  6.120  -26.7515    3.3036  -26.9163    3.4976  -26.7508    3.2737  -26.7141    3.2305  -26.6115    3.3229  -26.6653    3.5738
  6.130  -26.5327    3.2222  -26.6947    3.4119  -26.5322    3.1957  -26.4974    3.1516  -26.3955    3.2439  -26.4496    3.4870
  6.140  -26.3180    3.1441  -26.4771    3.3296  -26.3175    3.1207  -26.2847    3.0759  -26.1835    3.1680  -26.2377    3.4037
  6.150  -26.1071    3.0692  -26.2634    3.2507  -26.1068    3.0487  -26.0758    3.0032  -25.9753    3.0951  -26.0295    3.3237
  6.160  -25.9000    2.9972  -26.0536    3.1749  -25.8998    2.9795  -25.8705    2.9333  -25.7707    3.0250  -25.8250    3.2469
  6.170  -25.6965    2.9280  -25.8475    3.1020  -25.6965    2.9129  -25.6688    2.8662  -25.5697    2.9575  -25.6239    3.1729
  6.180  -25.4966    2.8614  -25.6450    3.0320  -25.4968    2.8489  -25.4706    2.8015  -25.3722    2.8926  -25.4262    3.1018
  6.190  -25.3001    2.7974  -25.4460    2.9646  -25.3005    2.7872  -25.2758    2.7393  -25.1780    2.8301  -25.2319    3.0334
  6.200  -25.1070    2.7358  -25.2504    2.8997  -25.1075    2.7278  -25.0842    2.6794  -24.9872    2.7699  -25.0408    2.9674
  6.210  -24.9171    2.6764  -25.0581    2.8372  -24.9178    2.6706  -24.8958    2.6216  -24.7995    2.7118  -24.8528    2.9039
  6.220  -24.7304    2.6191  -24.8691    2.7770  -24.7312    2.6153  -24.7105    2.5660  -24.6149    2.6559  -24.6679    2.8427
  6.230  -24.5467    2.5639  -24.6832    2.7189  -24.5477    2.5621  -24.5282    2.5123  -24.4333    2.6018  -24.4860    2.7836
  6.240  -24.3660    2.5107  -24.5003    2.6629  -24.3672    2.5106  -24.3489    2.4604  -24.2546    2.5496  -24.3069    2.7265
  6.250  -24.1882    2.4593  -24.3204    2.6089  -24.1896    2.4610  -24.1723    2.4104  -24.0787    2.4992  -24.1307    2.6715
  6.260  -24.0133    2.4096  -24.1433    2.5567  -24.0148    2.4130  -23.9986    2.3620  -23.9056    2.4505  -23.9572    2.6183
  6.270  -23.8410    2.3617  -23.9691    2.5062  -23.8428    2.3666  -23.8275    2.3153  -23.7353    2.4035  -23.7864    2.5669
  6.280  -23.6715    2.3153  -23.7975    2.4575  -23.6734    2.3217  -23.6591    2.2701  -23.5675    2.3579  -23.6182    2.5172
  6.290  -23.5045    2.2705  -23.6287    2.4104  -23.5066    2.2783  -23.4932    2.2264  -23.4023    2.3138  -23.4526    2.4691
  6.300  -23.3401    2.2271  -23.4624    2.3648  -23.3424    2.2363  -23.3298    2.1842  -23.2395    2.2712  -23.2894    2.4226
  6.310  -23.1781    2.1852  -23.2986    2.3206  -23.1806    2.1956  -23.1688    2.1432  -23.0792    2.2298  -23.1286    2.3775
  6.320  -23.0186    2.1445  -23.1372    2.2779  -23.0212    2.1562  -23.0102    2.1036  -22.9212    2.1898  -22.9701    2.3339
  6.330  -22.8613    2.1052  -22.9782    2.2365  -22.8641    2.1180  -22.8539    2.0652  -22.7655    2.1510  -22.8140    2.2917
  6.340  -22.7064    2.0670  -22.8216    2.1964  -22.7093    2.0810  -22.6998    2.0279  -22.6121    2.1134  -22.6601    2.2507
  6.350  -22.5536    2.0300  -22.6672    2.1576  -22.5567    2.0450  -22.5479    1.9918  -22.4608    2.0769  -22.5083    2.2110
  6.360  -22.4031    1.9942  -22.5150    2.1199  -22.4063    2.0102  -22.3981    1.9568  -22.3117    2.0414  -22.3587    2.1724
  6.370  -22.2546    1.9594  -22.3650    2.0833  -22.2580    1.9763  -22.2504    1.9228  -22.1646    2.0070  -22.2111    2.1350
  6.380  -22.1082    1.9256  -22.2171    2.0478  -22.1117    1.9435  -22.1047    1.8899  -22.0195    1.9737  -22.0656    2.0987
  6.390  -21.9638    1.8929  -22.0712    2.0133  -21.9675    1.9115  -21.9610    1.8578  -21.8765    1.9412  -21.9220    2.0635
  6.400  -21.8214    1.8610  -21.9273    1.9799  -21.8252    1.8805  -21.8193    1.8267  -21.7353    1.9097  -21.7804    2.0293
  6.410  -21.6808    1.8301  -21.7854    1.9474  -21.6848    1.8504  -21.6794    1.7965  -21.5960    1.8790  -21.6407    1.9960
  6.420  -21.5422    1.8001  -21.6453    1.9158  -21.5463    1.8211  -21.5414    1.7671  -21.4586    1.8492  -21.5028    1.9636
  6.430  -21.4053    1.7709  -21.5072    1.8851  -21.4096    1.7926  -21.4051    1.7386  -21.3230    1.8202  -21.3667    1.9322
  6.440  -21.2703    1.7425  -21.3708    1.8552  -21.2747    1.7648  -21.2707    1.7108  -21.1891    1.7920  -21.2323    1.9016
  6.450  -21.1370    1.7148  -21.2362    1.8261  -21.1415    1.7378  -21.1379    1.6837  -21.0569    1.7646  -21.0997    1.8718
  6.460  -21.0054    1.6879  -21.1033    1.7978  -21.0100    1.7115  -21.0068    1.6574  -20.9264    1.7378  -20.9687    1.8429
  6.470  -20.8754    1.6618  -20.9722    1.7703  -20.8802    1.6859  -20.8774    1.6318  -20.7976    1.7118  -20.8394    1.8147
  6.480  -20.7471    1.6363  -20.8426    1.7435  -20.7520    1.6610  -20.7495    1.6069  -20.6703    1.6864  -20.7117    1.7872
  6.490  -20.6204    1.6115  -20.7147    1.7174  -20.6254    1.6367  -20.6233    1.5826  -20.5446    1.6617  -20.5855    1.7604
  6.500  -20.4952    1.5873  -20.5884    1.6919  -20.5003    1.6130  -20.4986    1.5589  -20.4204    1.6376  -20.4609    1.7344
  6.510  -20.3715    1.5637  -20.4637    1.6671  -20.3768    1.5899  -20.3753    1.5358  -20.2978    1.6141  -20.3378    1.7089
  6.520  -20.2494    1.5408  -20.3404    1.6430  -20.2547    1.5673  -20.2536    1.5133  -20.1766    1.5912  -20.2162    1.6842
  6.530  -20.1286    1.5184  -20.2186    1.6194  -20.1341    1.5454  -20.1333    1.4914  -20.0568    1.5688  -20.0960    1.6600
  6.540  -20.0094    1.4965  -20.0983    1.5964  -20.0149    1.5239  -20.0144    1.4700  -19.9385    1.5470  -19.9772    1.6364
  6.550  -19.8915    1.4752  -19.9794    1.5740  -19.8971    1.5030  -19.8968    1.4491  -19.8215    1.5257  -19.8598    1.6134
  6.560  -19.7750    1.4544  -19.8619    1.5521  -19.7807    1.4825  -19.7807    1.4287  -19.7058    1.5049  -19.7437    1.5910
  6.570  -19.6598    1.4342  -19.7458    1.5307  -19.6656    1.4626  -19.6658    1.4088  -19.5915    1.4846  -19.6290    1.5690
  6.580  -19.5459    1.4144  -19.6309    1.5099  -19.5518    1.4431  -19.5523    1.3894  -19.4785    1.4648  -19.5156    1.5476
  6.590  -19.4333    1.3950  -19.5174    1.4895  -19.4393    1.4240  -19.4400    1.3705  -19.3668    1.4454  -19.4034    1.5267
  6.600  -19.3220    1.3761  -19.4052    1.4696  -19.3281    1.4054  -19.3290    1.3519  -19.2563    1.4265  -19.2925    1.5063
  6.610  -19.2119    1.3577  -19.2942    1.4501  -19.2181    1.3872  -19.2192    1.3338  -19.1470    1.4080  -19.1829    1.4863
  6.620  -19.1030    1.3396  -19.1845    1.4311  -19.1093    1.3694  -19.1106    1.3161  -19.0389    1.3899  -19.0744    1.4668
  6.630  -18.9954    1.3220  -19.0759    1.4125  -19.0017    1.3520  -19.0032    1.2988  -18.9320    1.3722  -18.9671    1.4478
  6.640  -18.8888    1.3048  -18.9686    1.3944  -18.8953    1.3350  -18.8969    1.2819  -18.8262    1.3548  -18.8609    1.4291
  6.650  -18.7835    1.2879  -18.8624    1.3766  -18.7900    1.3183  -18.7918    1.2654  -18.7216    1.3379  -18.7559    1.4109
  6.660  -18.6792    1.2714  -18.7573    1.3592  -18.6858    1.3020  -18.6877    1.2492  -18.6180    1.3213  -18.6520    1.3930
  6.670  -18.5760    1.2553  -18.6534    1.3422  -18.5827    1.2861  -18.5848    1.2334  -18.5156    1.3051  -18.5492    1.3756
  6.680  -18.4740    1.2395  -18.5506    1.3256  -18.4807    1.2705  -18.4830    1.2179  -18.4142    1.2892  -18.4475    1.3585
  6.690  -18.3729    1.2241  -18.4488    1.3093  -18.3797    1.2552  -18.3821    1.2027  -18.3138    1.2737  -18.3468    1.3418
  6.700  -18.2730    1.2090  -18.3481    1.2933  -18.2798    1.2402  -18.2824    1.1879  -18.2145    1.2584  -18.2471    1.3254
  6.710  -18.1740    1.1942  -18.2484    1.2777  -18.1809    1.2255  -18.1836    1.1734  -18.1162    1.2435  -18.1485    1.3094
  6.720  -18.0761    1.1797  -18.1498    1.2624  -18.0830    1.2112  -18.0858    1.1591  -18.0189    1.2289  -18.0509    1.2937
  6.730  -17.9791    1.1655  -18.0521    1.2474  -17.9861    1.1971  -17.9890    1.1452  -17.9226    1.2146  -17.9542    1.2783
  6.740  -17.8831    1.1516  -17.9554    1.2328  -17.8902    1.1833  -17.8932    1.1316  -17.8272    1.2005  -17.8585    1.2632
  6.750  -17.7880    1.1380  -17.8597    1.2184  -17.7952    1.1698  -17.7983    1.1182  -17.7328    1.1868  -17.7637    1.2484
  6.760  -17.6939    1.1246  -17.7650    1.2043  -17.7011    1.1565  -17.7044    1.1051  -17.6393    1.1733  -17.6699    1.2340
  6.770  -17.6007    1.1116  -17.6711    1.1904  -17.6080    1.1435  -17.6113    1.0922  -17.5467    1.1601  -17.5770    1.2198
  6.780  -17.5085    1.0987  -17.5782    1.1769  -17.5158    1.1307  -17.5192    1.0796  -17.4550    1.1471  -17.4850    1.2059
  6.790  -17.4170    1.0862  -17.4862    1.1636  -17.4244    1.1182  -17.4279    1.0673  -17.3641    1.1344  -17.3939    1.1922
  6.800  -17.3265    1.0738  -17.3951    1.1506  -17.3339    1.1060  -17.3375    1.0551  -17.2741    1.1219  -17.3036    1.1788
  6.810  -17.2368    1.0617  -17.3048    1.1378  -17.2443    1.0939  -17.2479    1.0433  -17.1850    1.1096  -17.2142    1.1657
  6.820  -17.1480    1.0499  -17.2154    1.1253  -17.1555    1.0821  -17.1592    1.0316  -17.0967    1.0976  -17.1256    1.1528
  6.830  -17.0600    1.0382  -17.1269    1.1129  -17.0675    1.0705  -17.0714    1.0202  -17.0093    1.0858  -17.0378    1.1402
  6.840  -16.9728    1.0268  -17.0391    1.1009  -16.9804    1.0591  -16.9843    1.0089  -16.9226    1.0742  -16.9509    1.1278
  6.850  -16.8865    1.0156  -16.9522    1.0890  -16.8941    1.0479  -16.8980    0.9979  -16.8367    1.0628  -16.8648    1.1156
  6.860  -16.8009    1.0046  -16.8661    1.0774  -16.8085    1.0369  -16.8125    0.9871  -16.7517    1.0517  -16.7794    1.1037
  6.870  -16.7161    0.9938  -16.7808    1.0659  -16.7237    1.0261  -16.7278    0.9765  -16.6674    1.0407  -16.6948    1.0919
  6.880  -16.6320    0.9832  -16.6962    1.0547  -16.6397    1.0155  -16.6438    0.9661  -16.5838    1.0299  -16.6110    1.0804
  6.890  -16.5487    0.9728  -16.6124    1.0437  -16.5565    1.0051  -16.5606    0.9558  -16.5010    1.0193  -16.5279    1.0691
  6.900  -16.4662    0.9626  -16.5294    1.0329  -16.4740    0.9949  -16.4782    0.9458  -16.4189    1.0089  -16.4456    1.0580
  6.910  -16.3844    0.9526  -16.4471    1.0222  -16.3922    0.9848  -16.3964    0.9359  -16.3376    0.9987  -16.3640    1.0471
  6.920  -16.3033    0.9427  -16.3655    1.0118  -16.3111    0.9750  -16.3154    0.9262  -16.2569    0.9887  -16.2831    1.0363
  6.930  -16.2229    0.9330  -16.2846    1.0015  -16.2307    0.9653  -16.2351    0.9166  -16.1770    0.9788  -16.2029    1.0258
  6.940  -16.1432    0.9235  -16.2045    0.9914  -16.1511    0.9557  -16.1555    0.9073  -16.0977    0.9691  -16.1234    1.0154
  6.950  -16.0642    0.9141  -16.1250    0.9815  -16.0721    0.9463  -16.0765    0.8981  -16.0192    0.9595  -16.0446    1.0052
  6.960  -15.9859    0.9049  -16.0463    0.9717  -15.9938    0.9371  -15.9983    0.8890  -15.9413    0.9502  -15.9665    0.9952
  6.970  -15.9082    0.8959  -15.9682    0.9621  -15.9162    0.9280  -15.9207    0.8801  -15.8640    0.9409  -15.8890    0.9854
  6.980  -15.8312    0.8870  -15.8907    0.9527  -15.8392    0.9191  -15.8437    0.8713  -15.7875    0.9319  -15.8122    0.9757
  6.990  -15.7548    0.8782  -15.8140    0.9434  -15.7628    0.9103  -15.7674    0.8627  -15.7115    0.9229  -15.7361    0.9662
  7.000  -15.6791    0.8696  -15.7379    0.9343  -15.6871    0.9016  -15.6917    0.8543  -15.6362    0.9141  -15.6605    0.9568
  7.010  -15.6040    0.8612  -15.6624    0.9253  -15.6121    0.8931  -15.6167    0.8459  -15.5615    0.9055  -15.5856    0.9476
  7.020  -15.5296    0.8529  -15.5875    0.9165  -15.5376    0.8848  -15.5423    0.8378  -15.4874    0.8970  -15.5113    0.9385
  7.030  -15.4557    0.8447  -15.5133    0.9078  -15.4638    0.8765  -15.4685    0.8297  -15.4140    0.8886  -15.4377    0.9296
  7.040  -15.3825    0.8366  -15.4396    0.8993  -15.3905    0.8684  -15.3952    0.8218  -15.3411    0.8804  -15.3646    0.9208
  7.050  -15.3098    0.8287  -15.3666    0.8908  -15.3179    0.8604  -15.3226    0.8140  -15.2688    0.8723  -15.2921    0.9122
  7.060  -15.2377    0.8209  -15.2941    0.8826  -15.2458    0.8526  -15.2506    0.8063  -15.1971    0.8643  -15.2202    0.9037
  7.070  -15.1662    0.8132  -15.2223    0.8744  -15.1743    0.8449  -15.1791    0.7987  -15.1260    0.8564  -15.1488    0.8953
  7.080  -15.0953    0.8057  -15.1510    0.8664  -15.1034    0.8372  -15.1082    0.7913  -15.0554    0.8487  -15.0781    0.8871
  7.090  -15.0249    0.7983  -15.0803    0.8585  -15.0331    0.8297  -15.0379    0.7840  -14.9854    0.8411  -15.0079    0.8790
  7.100  -14.9551    0.7909  -15.0101    0.8507  -14.9633    0.8223  -14.9681    0.7768  -14.9160    0.8336  -14.9382    0.8710
  7.110  -14.8858    0.7837  -14.9406    0.8430  -14.8940    0.8151  -14.8988    0.7697  -14.8471    0.8262  -14.8691    0.8631
  7.120  -14.8171    0.7766  -14.8715    0.8355  -14.8253    0.8079  -14.8301    0.7627  -14.7787    0.8189  -14.8006    0.8554
  7.130  -14.7489    0.7696  -14.8030    0.8281  -14.7571    0.8008  -14.7620    0.7558  -14.7108    0.8117  -14.7325    0.8478
  7.140  -14.6812    0.7628  -14.7350    0.8207  -14.6894    0.7939  -14.6943    0.7490  -14.6435    0.8047  -14.6650    0.8403
  7.150  -14.6141    0.7560  -14.6675    0.8135  -14.6223    0.7870  -14.6272    0.7423  -14.5767    0.7977  -14.5980    0.8329
  7.160  -14.5475    0.7493  -14.6006    0.8064  -14.5557    0.7803  -14.5606    0.7357  -14.5104    0.7908  -14.5315    0.8256
  7.170  -14.4813    0.7427  -14.5342    0.7994  -14.4895    0.7736  -14.4944    0.7292  -14.4445    0.7841  -14.4655    0.8184
  7.180  -14.4157    0.7363  -14.4682    0.7925  -14.4239    0.7670  -14.4288    0.7229  -14.3792    0.7774  -14.4000    0.8113
  7.190  -14.3505    0.7299  -14.4028    0.7857  -14.3587    0.7606  -14.3637    0.7166  -14.3144    0.7708  -14.3350    0.8043
  7.200  -14.2859    0.7236  -14.3379    0.7790  -14.2941    0.7542  -14.2990    0.7103  -14.2500    0.7644  -14.2705    0.7975
  7.210  -14.2217    0.7174  -14.2734    0.7724  -14.2299    0.7479  -14.2348    0.7042  -14.1862    0.7580  -14.2065    0.7907
  7.220  -14.1580    0.7113  -14.2094    0.7659  -14.1662    0.7417  -14.1711    0.6982  -14.1228    0.7517  -14.1429    0.7840
  7.230  -14.0947    0.7052  -14.1459    0.7594  -14.1030    0.7356  -14.1079    0.6923  -14.0598    0.7455  -14.0798    0.7774
  7.240  -14.0320    0.6993  -14.0829    0.7531  -14.0402    0.7296  -14.0451    0.6864  -13.9973    0.7393  -14.0172    0.7709
  7.250  -13.9696    0.6934  -14.0203    0.7469  -13.9778    0.7236  -13.9828    0.6806  -13.9353    0.7333  -13.9550    0.7645
  7.260  -13.9078    0.6877  -13.9582    0.7407  -13.9160    0.7177  -13.9209    0.6749  -13.8737    0.7274  -13.8932    0.7582
  7.270  -13.8463    0.6820  -13.8965    0.7346  -13.8545    0.7120  -13.8595    0.6693  -13.8126    0.7215  -13.8319    0.7520
  7.280  -13.7853    0.6764  -13.8353    0.7286  -13.7935    0.7063  -13.7985    0.6638  -13.7519    0.7157  -13.7711    0.7459
  7.290  -13.7248    0.6708  -13.7745    0.7227  -13.7330    0.7006  -13.7380    0.6583  -13.6916    0.7100  -13.7106    0.7398
  7.300  -13.6646    0.6654  -13.7141    0.7169  -13.6728    0.6951  -13.6778    0.6529  -13.6317    0.7043  -13.6506    0.7338
  7.310  -13.6049    0.6600  -13.6542    0.7112  -13.6131    0.6896  -13.6181    0.6476  -13.5723    0.6988  -13.5911    0.7279
  7.320  -13.5456    0.6547  -13.5947    0.7055  -13.5538    0.6842  -13.5588    0.6424  -13.5133    0.6933  -13.5319    0.7221
  7.330  -13.4867    0.6494  -13.5356    0.6999  -13.4949    0.6788  -13.4999    0.6372  -13.4547    0.6879  -13.4731    0.7164
  7.340  -13.4283    0.6443  -13.4769    0.6944  -13.4365    0.6736  -13.4415    0.6321  -13.3965    0.6825  -13.4148    0.7107
  7.350  -13.3702    0.6392  -13.4186    0.6889  -13.3784    0.6684  -13.3834    0.6270  -13.3387    0.6773  -13.3569    0.7052
  7.360  -13.3125    0.6341  -13.3608    0.6835  -13.3207    0.6632  -13.3257    0.6221  -13.2813    0.6721  -13.2993    0.6997
  7.370  -13.2553    0.6292  -13.3033    0.6782  -13.2634    0.6582  -13.2684    0.6172  -13.2242    0.6669  -13.2422    0.6942
  7.380  -13.1984    0.6243  -13.2462    0.6730  -13.2065    0.6532  -13.2115    0.6123  -13.1676    0.6619  -13.1854    0.6889
  7.390  -13.1419    0.6195  -13.1895    0.6678  -13.1500    0.6483  -13.1550    0.6075  -13.1114    0.6569  -13.1290    0.6836
  7.400  -13.0857    0.6147  -13.1332    0.6627  -13.0939    0.6434  -13.0989    0.6028  -13.0555    0.6519  -13.0730    0.6783
  7.410  -13.0300    0.6100  -13.0773    0.6577  -13.0381    0.6386  -13.0431    0.5982  -13.0000    0.6470  -13.0174    0.6732
  7.420  -12.9746    0.6053  -13.0217    0.6527  -12.9827    0.6338  -12.9878    0.5936  -12.9448    0.6422  -12.9621    0.6681
  7.430  -12.9196    0.6007  -12.9665    0.6478  -12.9277    0.6291  -12.9327    0.5890  -12.8901    0.6375  -12.9072    0.6631
  7.440  -12.8649    0.5962  -12.9117    0.6429  -12.8730    0.6245  -12.8781    0.5846  -12.8357    0.6328  -12.8527    0.6581
  7.450  -12.8106    0.5917  -12.8573    0.6381  -12.8187    0.6199  -12.8238    0.5801  -12.7816    0.6281  -12.7985    0.6532
  7.460  -12.7567    0.5873  -12.8032    0.6334  -12.7648    0.6154  -12.7698    0.5758  -12.7279    0.6236  -12.7447    0.6484
  7.470  -12.7031    0.5830  -12.7494    0.6287  -12.7112    0.6109  -12.7162    0.5715  -12.6746    0.6190  -12.6912    0.6436
  7.480  -12.6499    0.5787  -12.6960    0.6241  -12.6579    0.6065  -12.6630    0.5672  -12.6215    0.6146  -12.6381    0.6389
  7.490  -12.5970    0.5744  -12.6430    0.6196  -12.6050    0.6022  -12.6101    0.5630  -12.5689    0.6102  -12.5853    0.6342
  7.500  -12.5444    0.5702  -12.5903    0.6151  -12.5524    0.5979  -12.5575    0.5588  -12.5165    0.6058  -12.5328    0.6296
  7.510  -12.4922    0.5661  -12.5379    0.6106  -12.5002    0.5936  -12.5053    0.5547  -12.4645    0.6015  -12.4807    0.6251
  7.520  -12.4403    0.5620  -12.4859    0.6062  -12.4483    0.5894  -12.4533    0.5507  -12.4129    0.5973  -12.4289    0.6206
  7.530  -12.3887    0.5579  -12.4342    0.6019  -12.3967    0.5853  -12.4018    0.5467  -12.3615    0.5931  -12.3775    0.6162
  7.540  -12.3374    0.5540  -12.3828    0.5976  -12.3454    0.5812  -12.3505    0.5427  -12.3105    0.5889  -12.3263    0.6118
  7.550  -12.2865    0.5500  -12.3317    0.5934  -12.2945    0.5772  -12.2996    0.5388  -12.2598    0.5848  -12.2755    0.6075
  7.560  -12.2359    0.5461  -12.2810    0.5892  -12.2439    0.5732  -12.2489    0.5350  -12.2094    0.5808  -12.2250    0.6032
  7.570  -12.1856    0.5423  -12.2306    0.5850  -12.1936    0.5692  -12.1986    0.5312  -12.1593    0.5768  -12.1748    0.5990
  7.580  -12.1356    0.5385  -12.1805    0.5810  -12.1436    0.5653  -12.1486    0.5274  -12.1095    0.5728  -12.1249    0.5948
  7.590  -12.0859    0.5347  -12.1307    0.5769  -12.0939    0.5615  -12.0989    0.5237  -12.0601    0.5689  -12.0754    0.5907
  7.600  -12.0365    0.5310  -12.0812    0.5729  -12.0445    0.5576  -12.0495    0.5200  -12.0109    0.5650  -12.0261    0.5866
  7.610  -11.9874    0.5274  -12.0320    0.5690  -11.9954    0.5539  -12.0004    0.5164  -11.9620    0.5612  -11.9771    0.5826
  7.620  -11.9386    0.5237  -11.9832    0.5651  -11.9466    0.5501  -11.9516    0.5128  -11.9134    0.5575  -11.9284    0.5786
  7.630  -11.8902    0.5202  -11.9346    0.5612  -11.8980    0.5465  -11.9031    0.5092  -11.8651    0.5537  -11.8800    0.5747
  7.640  -11.8419    0.5166  -11.8863    0.5574  -11.8498    0.5428  -11.8549    0.5057  -11.8171    0.5501  -11.8319    0.5708
  7.650  -11.7940    0.5131  -11.8383    0.5537  -11.8019    0.5392  -11.8070    0.5022  -11.7694    0.5464  -11.7841    0.5670
  7.660  -11.7464    0.5097  -11.7906    0.5500  -11.7542    0.5357  -11.7593    0.4988  -11.7220    0.5428  -11.7366    0.5632
  7.670  -11.6990    0.5063  -11.7431    0.5463  -11.7069    0.5322  -11.7120    0.4954  -11.6748    0.5393  -11.6894    0.5594
  7.680  -11.6519    0.5029  -11.6960    0.5427  -11.6598    0.5287  -11.6649    0.4921  -11.6280    0.5358  -11.6424    0.5557
  7.690  -11.6051    0.4996  -11.6491    0.5391  -11.6129    0.5253  -11.6180    0.4888  -11.5814    0.5323  -11.5957    0.5521
  7.700  -11.5586    0.4963  -11.6025    0.5355  -11.5664    0.5219  -11.5715    0.4855  -11.5350    0.5288  -11.5493    0.5485
  7.710  -11.5123    0.4930  -11.5562    0.5320  -11.5201    0.5185  -11.5252    0.4823  -11.4889    0.5255  -11.5031    0.5449
  7.720  -11.4663    0.4898  -11.5101    0.5285  -11.4741    0.5152  -11.4792    0.4791  -11.4431    0.5221  -11.4572    0.5414
  7.730  -11.4206    0.4867  -11.4644    0.5251  -11.4283    0.5119  -11.4335    0.4759  -11.3976    0.5188  -11.4116    0.5379
  7.740  -11.3751    0.4835  -11.4188    0.5217  -11.3828    0.5087  -11.3880    0.4728  -11.3523    0.5155  -11.3662    0.5344
  7.750  -11.3299    0.4804  -11.3736    0.5184  -11.3376    0.5055  -11.3427    0.4697  -11.3073    0.5123  -11.3211    0.5310
  7.760  -11.2849    0.4773  -11.3286    0.5150  -11.2926    0.5023  -11.2978    0.4666  -11.2625    0.5091  -11.2762    0.5277
  7.770  -11.2402    0.4743  -11.2838    0.5118  -11.2478    0.4992  -11.2530    0.4636  -11.2180    0.5059  -11.2316    0.5243
  7.780  -11.1957    0.4713  -11.2393    0.5085  -11.2033    0.4961  -11.2085    0.4606  -11.1737    0.5028  -11.1872    0.5210
  7.790  -11.1515    0.4684  -11.1951    0.5053  -11.1591    0.4930  -11.1643    0.4577  -11.1297    0.4997  -11.1431    0.5178
  7.800  -11.1075    0.4654  -11.1511    0.5021  -11.1151    0.4900  -11.1203    0.4547  -11.0859    0.4966  -11.0992    0.5146
  7.810  -11.0637    0.4625  -11.1073    0.4990  -11.0713    0.4870  -11.0766    0.4519  -11.0423    0.4936  -11.0556    0.5114
  7.820  -11.0202    0.4597  -11.0638    0.4959  -11.0278    0.4840  -11.0330    0.4490  -10.9990    0.4906  -11.0122    0.5082
  7.830  -10.9770    0.4569  -11.0205    0.4928  -10.9845    0.4811  -10.9898    0.4462  -10.9559    0.4877  -10.9690    0.5051
  7.840  -10.9339    0.4541  -10.9775    0.4898  -10.9414    0.4782  -10.9467    0.4434  -10.9131    0.4847  -10.9261    0.5020
  7.850  -10.8911    0.4513  -10.9347    0.4868  -10.8986    0.4754  -10.9039    0.4406  -10.8704    0.4818  -10.8834    0.4990
  7.860  -10.8485    0.4486  -10.8921    0.4838  -10.8560    0.4725  -10.8613    0.4379  -10.8280    0.4790  -10.8409    0.4960
  7.870  -10.8062    0.4459  -10.8498    0.4809  -10.8136    0.4697  -10.8190    0.4352  -10.7859    0.4762  -10.7987    0.4930
  7.880  -10.7640    0.4432  -10.8076    0.4780  -10.7715    0.4670  -10.7768    0.4325  -10.7439    0.4734  -10.7567    0.4901
  7.890  -10.7221    0.4406  -10.7658    0.4751  -10.7295    0.4642  -10.7349    0.4299  -10.7022    0.4706  -10.7149    0.4872
  7.900  -10.6804    0.4380  -10.7241    0.4723  -10.6878    0.4615  -10.6932    0.4273  -10.6607    0.4679  -10.6733    0.4843
  7.910  -10.6389    0.4354  -10.6826    0.4695  -10.6463    0.4588  -10.6517    0.4247  -10.6194    0.4652  -10.6319    0.4815
  7.920  -10.5977    0.4329  -10.6414    0.4667  -10.6050    0.4562  -10.6104    0.4221  -10.5783    0.4625  -10.5908    0.4787
  7.930  -10.5566    0.4304  -10.6004    0.4640  -10.5640    0.4536  -10.5694    0.4196  -10.5374    0.4599  -10.5498    0.4759
  7.940  -10.5157    0.4279  -10.5596    0.4613  -10.5231    0.4510  -10.5285    0.4171  -10.4968    0.4573  -10.5091    0.4732
  7.950  -10.4751    0.4254  -10.5190    0.4586  -10.4824    0.4485  -10.4879    0.4146  -10.4563    0.4547  -10.4685    0.4705
  7.960  -10.4346    0.4230  -10.4786    0.4559  -10.4419    0.4459  -10.4474    0.4122  -10.4160    0.4522  -10.4282    0.4678
  7.970  -10.3944    0.4206  -10.4384    0.4533  -10.4017    0.4434  -10.4072    0.4098  -10.3760    0.4497  -10.3881    0.4652
  7.980  -10.3544    0.4182  -10.3985    0.4507  -10.3616    0.4410  -10.3671    0.4074  -10.3361    0.4472  -10.3482    0.4626
  7.990  -10.3145    0.4159  -10.3587    0.4481  -10.3217    0.4385  -10.3273    0.4050  -10.2965    0.4447  -10.3084    0.4600
  8.000  -10.2748    0.4136  -10.3191    0.4456  -10.2821    0.4361  -10.2876    0.4027  -10.2570    0.4423  -10.2689    0.4574
  8.010  -10.2354    0.4113  -10.2797    0.4431  -10.2426    0.4337  -10.2482    0.4004  -10.2177    0.4399  -10.2295    0.4549
  8.020  -10.1961    0.4090  -10.2406    0.4406  -10.2033    0.4314  -10.2089    0.3981  -10.1786    0.4375  -10.1904    0.4524
  8.030  -10.1570    0.4068  -10.2016    0.4381  -10.1642    0.4290  -10.1698    0.3958  -10.1397    0.4352  -10.1514    0.4499
  8.040  -10.1181    0.4046  -10.1628    0.4357  -10.1252    0.4267  -10.1309    0.3936  -10.1010    0.4329  -10.1126    0.4475
  8.050  -10.0794    0.4024  -10.1242    0.4333  -10.0865    0.4245  -10.0922    0.3914  -10.0625    0.4306  -10.0741    0.4451
  8.060  -10.0409    0.4003  -10.0858    0.4309  -10.0479    0.4222  -10.0537    0.3892  -10.0241    0.4283  -10.0356    0.4427
  8.070  -10.0025    0.3981  -10.0475    0.4286  -10.0096    0.4200  -10.0153    0.3870   -9.9860    0.4261   -9.9974    0.4404
  8.080   -9.9643    0.3960  -10.0095    0.4263   -9.9713    0.4178   -9.9771    0.3849   -9.9480    0.4239   -9.9593    0.4381
  8.090   -9.9263    0.3940   -9.9716    0.4240   -9.9333    0.4156   -9.9391    0.3828   -9.9101    0.4217   -9.9215    0.4358
  8.100   -9.8884    0.3919   -9.9339    0.4217   -9.8954    0.4135   -9.9013    0.3807   -9.8725    0.4195   -9.8837    0.4335
  8.110   -9.8508    0.3899   -9.8964    0.4194   -9.8577    0.4114   -9.8636    0.3786   -9.8350    0.4174   -9.8462    0.4313
  8.120   -9.8133    0.3879   -9.8590    0.4172   -9.8202    0.4093   -9.8262    0.3766   -9.7977    0.4153   -9.8088    0.4291
  8.130   -9.7759    0.3859   -9.8219    0.4150   -9.7828    0.4072   -9.7888    0.3746   -9.7606    0.4133   -9.7716    0.4269
  8.140   -9.7387    0.3840   -9.7849    0.4129   -9.7456    0.4052   -9.7517    0.3726   -9.7236    0.4112   -9.7346    0.4248
  8.150   -9.7017    0.3821   -9.7480    0.4107   -9.7086    0.4032   -9.7147    0.3706   -9.6867    0.4092   -9.6977    0.4226
  8.160   -9.6649    0.3802   -9.7114    0.4086   -9.6717    0.4012   -9.6778    0.3686   -9.6501    0.4072   -9.6610    0.4205
  8.170   -9.6282    0.3783   -9.6749    0.4065   -9.6350    0.3992   -9.6411    0.3667   -9.6136    0.4052   -9.6244    0.4185
  8.180   -9.5916    0.3765   -9.6385    0.4045   -9.5984    0.3973   -9.6046    0.3648   -9.5772    0.4033   -9.5880    0.4164
  8.190   -9.5552    0.3747   -9.6023    0.4024   -9.5620    0.3954   -9.5682    0.3629   -9.5410    0.4014   -9.5518    0.4144
  8.200   -9.5189    0.3729   -9.5663    0.4004   -9.5257    0.3935   -9.5320    0.3611   -9.5050    0.3995   -9.5157    0.4125
  8.210   -9.4828    0.3711   -9.5304    0.3984   -9.4896    0.3917   -9.4959    0.3592   -9.4691    0.3976   -9.4797    0.4105
  8.220   -9.4469    0.3694   -9.4947    0.3964   -9.4536    0.3898   -9.4599    0.3574   -9.4333    0.3958   -9.4439    0.4086
  8.230   -9.4110    0.3677   -9.4592    0.3945   -9.4177    0.3880   -9.4241    0.3557   -9.3977    0.3940   -9.4082    0.4067
  8.240   -9.3754    0.3660   -9.4237    0.3926   -9.3820    0.3862   -9.3885    0.3539   -9.3622    0.3922   -9.3727    0.4048
  8.250   -9.3398    0.3643   -9.3885    0.3907   -9.3464    0.3845   -9.3530    0.3521   -9.3269    0.3905   -9.3373    0.4030
  8.260   -9.3044    0.3627   -9.3533    0.3888   -9.3110    0.3827   -9.3176    0.3504   -9.2917    0.3888   -9.3021    0.4011
  8.270   -9.2691    0.3611   -9.3184    0.3869   -9.2757    0.3810   -9.2823    0.3487   -9.2566    0.3871   -9.2670    0.3993
  8.280   -9.2340    0.3595   -9.2835    0.3851   -9.2405    0.3794   -9.2472    0.3470   -9.2217    0.3854   -9.2320    0.3976
  8.290   -9.1990    0.3579   -9.2488    0.3833   -9.2055    0.3777   -9.2122    0.3454   -9.1869    0.3837   -9.1971    0.3959
  8.300   -9.1641    0.3564   -9.2143    0.3815   -9.1706    0.3761   -9.1774    0.3438   -9.1522    0.3821   -9.1624    0.3941
  8.310   -9.1293    0.3549   -9.1798    0.3798   -9.1358    0.3745   -9.1426    0.3422   -9.1177    0.3805   -9.1278    0.3925
  8.320   -9.0947    0.3534   -9.1455    0.3781   -9.1011    0.3729   -9.1080    0.3406   -9.0833    0.3790   -9.0933    0.3908
  8.330   -9.0601    0.3520   -9.1114    0.3764   -9.0665    0.3714   -9.0735    0.3390   -9.0490    0.3774   -9.0590    0.3892
  8.340   -9.0257    0.3505   -9.0774    0.3747   -9.0321    0.3699   -9.0392    0.3375   -9.0148    0.3759   -9.0248    0.3876
  8.350   -8.9914    0.3491   -9.0434    0.3730   -8.9977    0.3684   -9.0049    0.3360   -8.9807    0.3744   -8.9907    0.3860
  8.360   -8.9572    0.3478   -9.0097    0.3714   -8.9635    0.3669   -8.9708    0.3345   -8.9468    0.3730   -8.9567    0.3845
  8.370   -8.9231    0.3464   -8.9760    0.3698   -8.9294    0.3655   -8.9367    0.3330   -8.9129    0.3716   -8.9228    0.3830
  8.380   -8.8891    0.3451   -8.9425    0.3682   -8.8954    0.3641   -8.9028    0.3315   -8.8792    0.3702   -8.8890    0.3815
  8.390   -8.8553    0.3438   -8.9090    0.3666   -8.8615    0.3627   -8.8689    0.3301   -8.8456    0.3688   -8.8553    0.3801
  8.400   -8.8215    0.3426   -8.8757    0.3651   -8.8277    0.3613   -8.8352    0.3287   -8.8121    0.3675   -8.8217    0.3787
  8.410   -8.7878    0.3413   -8.8425    0.3636   -8.7940    0.3600   -8.8016    0.3273   -8.7786    0.3662   -8.7883    0.3773
  8.420   -8.7542    0.3401   -8.8095    0.3621   -8.7603    0.3587   -8.7681    0.3260   -8.7453    0.3649   -8.7549    0.3759
  8.430   -8.7207    0.3390   -8.7765    0.3607   -8.7268    0.3574   -8.7346    0.3247   -8.7121    0.3636   -8.7216    0.3746
  8.440   -8.6873    0.3378   -8.7436    0.3592   -8.6934    0.3562   -8.7013    0.3233   -8.6789    0.3624   -8.6885    0.3733
  8.450   -8.6540    0.3367   -8.7108    0.3578   -8.6600    0.3550   -8.6680    0.3221   -8.6459    0.3613   -8.6554    0.3721
  8.460   -8.6207    0.3356   -8.6782    0.3564   -8.6267    0.3538   -8.6348    0.3208   -8.6129    0.3601   -8.6224    0.3708
  8.470   -8.5876    0.3346   -8.6456    0.3551   -8.5935    0.3527   -8.6017    0.3196   -8.5801    0.3590   -8.5895    0.3697
  8.480   -8.5545    0.3336   -8.6132    0.3538   -8.5604    0.3516   -8.5687    0.3184   -8.5473    0.3579   -8.5566    0.3685
  8.490   -8.5215    0.3326   -8.5808    0.3525   -8.5273    0.3505   -8.5358    0.3172   -8.5145    0.3569   -8.5239    0.3674
  8.500   -8.4885    0.3317   -8.5485    0.3512   -8.4944    0.3495   -8.5029    0.3161   -8.4819    0.3558   -8.4912    0.3663
  8.510   -8.4556    0.3307   -8.5163    0.3499   -8.4614    0.3484   -8.4701    0.3149   -8.4493    0.3549   -8.4586    0.3652
  8.520   -8.4228    0.3299   -8.4842    0.3487   -8.4286    0.3475   -8.4373    0.3138   -8.4168    0.3539   -8.4260    0.3642
  8.530   -8.3900    0.3290   -8.4522    0.3475   -8.3958    0.3465   -8.4046    0.3128   -8.3844    0.3530   -8.3935    0.3633
  8.540   -8.3573    0.3282   -8.4202    0.3464   -8.3630    0.3456   -8.3720    0.3117   -8.3520    0.3522   -8.3611    0.3623
  8.550   -8.3247    0.3275   -8.3884    0.3452   -8.3303    0.3448   -8.3394    0.3107   -8.3197    0.3513   -8.3288    0.3614
  8.560   -8.2920    0.3268   -8.3566    0.3441   -8.2976    0.3440   -8.3069    0.3097   -8.2874    0.3505   -8.2965    0.3606
  8.570   -8.2595    0.3261   -8.3249    0.3430   -8.2650    0.3432   -8.2744    0.3088   -8.2552    0.3498   -8.2642    0.3598
  8.580   -8.2269    0.3254   -8.2932    0.3420   -8.2324    0.3424   -8.2420    0.3079   -8.2230    0.3491   -8.2320    0.3590
  8.590   -8.1944    0.3248   -8.2616    0.3410   -8.1999    0.3417   -8.2096    0.3070   -8.1909    0.3484   -8.1999    0.3583
  8.600   -8.1620    0.3243   -8.2301    0.3400   -8.1674    0.3411   -8.1772    0.3061   -8.1588    0.3478   -8.1677    0.3576
  8.610   -8.1295    0.3238   -8.1987    0.3391   -8.1348    0.3405   -8.1449    0.3053   -8.1268    0.3473   -8.1356    0.3570
  8.620   -8.0971    0.3234   -8.1673    0.3382   -8.1024    0.3399   -8.1125    0.3045   -8.0948    0.3468   -8.1036    0.3564
  8.630   -8.0646    0.3229   -8.1359    0.3373   -8.0699    0.3394   -8.0802    0.3038   -8.0628    0.3463   -8.0715    0.3559
  8.640   -8.0322    0.3226   -8.1046    0.3364   -8.0374    0.3389   -8.0479    0.3031   -8.0308    0.3459   -8.0395    0.3554
  8.650   -7.9998    0.3223   -8.0734    0.3356   -8.0049    0.3385   -8.0156    0.3024   -7.9988    0.3455   -8.0075    0.3550
  8.660   -7.9674    0.3221   -8.0421    0.3349   -7.9725    0.3382   -7.9833    0.3018   -7.9669    0.3452   -7.9755    0.3547
  8.670   -7.9350    0.3219   -8.0110    0.3341   -7.9400    0.3379   -7.9510    0.3012   -7.9349    0.3450   -7.9436    0.3544
  8.680   -7.9025    0.3218   -7.9798    0.3334   -7.9075    0.3377   -7.9187    0.3007   -7.9030    0.3448   -7.9116    0.3541
  8.690   -7.8701    0.3217   -7.9487    0.3328   -7.8749    0.3375   -7.8864    0.3002   -7.8710    0.3447   -7.8796    0.3539
  8.700   -7.8376    0.3217   -7.9176    0.3322   -7.8424    0.3374   -7.8541    0.2997   -7.8390    0.3446   -7.8476    0.3538
  8.710   -7.8050    0.3218   -7.8865    0.3316   -7.8098    0.3373   -7.8217    0.2993   -7.8070    0.3447   -7.8156    0.3538
  8.720   -7.7725    0.3220   -7.8555    0.3311   -7.7771    0.3374   -7.7892    0.2990   -7.7750    0.3448   -7.7835    0.3538
  8.730   -7.7398    0.3222   -7.8245    0.3306   -7.7444    0.3375   -7.7568    0.2987   -7.7430    0.3449   -7.7514    0.3539
  8.740   -7.7072    0.3225   -7.7934    0.3302   -7.7117    0.3377   -7.7242    0.2985   -7.7109    0.3452   -7.7193    0.3541
  8.750   -7.6744    0.3229   -7.7624    0.3298   -7.6788    0.3379   -7.6917    0.2983   -7.6788    0.3455   -7.6872    0.3544
  8.760   -7.6416    0.3234   -7.7314    0.3295   -7.6459    0.3383   -7.6590    0.2982   -7.6466    0.3459   -7.6549    0.3548
  8.770   -7.6087    0.3240   -7.7003    0.3292   -7.6129    0.3387   -7.6262    0.2981   -7.6143    0.3464   -7.6227    0.3552
  8.780   -7.5756    0.3247   -7.6693    0.3290   -7.5798    0.3392   -7.5934    0.2981   -7.5820    0.3470   -7.5903    0.3558
  8.790   -7.5425    0.3255   -7.6382    0.3288   -7.5465    0.3399   -7.5605    0.2982   -7.5496    0.3477   -7.5579    0.3564
  8.800   -7.5093    0.3263   -7.6071    0.3287   -7.5132    0.3406   -7.5274    0.2984   -7.5171    0.3486   -7.5254    0.3572
  8.810   -7.4759    0.3274   -7.5759    0.3287   -7.4797    0.3415   -7.4942    0.2986   -7.4845    0.3495   -7.4928    0.3581
  8.820   -7.4424    0.3285   -7.5447    0.3288   -7.4461    0.3425   -7.4609    0.2990   -7.4518    0.3506   -7.4600    0.3591
  8.830   -7.4087    0.3298   -7.5135    0.3289   -7.4123    0.3436   -7.4274    0.2994   -7.4190    0.3517   -7.4272    0.3602
  8.840   -7.3749    0.3312   -7.4822    0.3290   -7.3783    0.3448   -7.3938    0.2999   -7.3860    0.3531   -7.3942    0.3615
  8.850   -7.3408    0.3328   -7.4509    0.3293   -7.3441    0.3462   -7.3599    0.3005   -7.3529    0.3545   -7.3611    0.3629
  8.860   -7.3066    0.3345   -7.4194    0.3296   -7.3097    0.3477   -7.3259    0.3013   -7.3197    0.3561   -7.3278    0.3645
  8.870   -7.2722    0.3364   -7.3879    0.3300   -7.2751    0.3494   -7.2917    0.3021   -7.2862    0.3579   -7.2943    0.3662
  8.880   -7.2375    0.3385   -7.3563    0.3306   -7.2402    0.3513   -7.2572    0.3031   -7.2526    0.3599   -7.2607    0.3681
  8.890   -7.2026    0.3407   -7.3246    0.3312   -7.2051    0.3534   -7.2225    0.3042   -7.2188    0.3620   -7.2269    0.3702
  8.900   -7.1673    0.3432   -7.2928    0.3319   -7.1697    0.3557   -7.1875    0.3054   -7.1848    0.3643   -7.1928    0.3725
  8.910   -7.1318    0.3460   -7.2609    0.3327   -7.1340    0.3582   -7.1522    0.3068   -7.1505    0.3669   -7.1585    0.3750
  8.920   -7.0960    0.3489   -7.2289    0.3336   -7.0979    0.3609   -7.1166    0.3084   -7.1160    0.3697   -7.1240    0.3777
  8.930   -7.0599    0.3521   -7.1966    0.3346   -7.0615    0.3639   -7.0806    0.3101   -7.0812    0.3727   -7.0891    0.3807
  8.940   -7.0233    0.3557   -7.1643    0.3358   -7.0247    0.3671   -7.0443    0.3121   -7.0461    0.3760   -7.0540    0.3840
  8.950   -6.9864    0.3595   -7.1318    0.3371   -6.9875    0.3707   -7.0076    0.3142   -7.0107    0.3796   -7.0186    0.3875
  8.960   -6.9491    0.3636   -7.0990    0.3385   -6.9498    0.3745   -6.9704    0.3166   -6.9749    0.3835   -6.9828    0.3914
  8.970   -6.9113    0.3681   -7.0661    0.3401   -6.9117    0.3787   -6.9328    0.3192   -6.9388    0.3877   -6.9467    0.3955
  8.980   -6.8730    0.3731   -7.0330    0.3419   -6.8730    0.3833   -6.8946    0.3221   -6.9023    0.3923   -6.9102    0.4001
  8.990   -6.8341    0.3784   -6.9996    0.3438   -6.8337    0.3883   -6.8560    0.3253   -6.8654    0.3973   -6.8732    0.4050
  9.000   -6.7948    0.3842   -6.9660    0.3459   -6.7939    0.3938   -6.8167    0.3288   -6.8280    0.4027   -6.8358    0.4104
  9.010   -6.7548    0.3905   -6.9321    0.3482   -6.7534    0.3998   -6.7768    0.3326   -6.7901    0.4086   -6.7980    0.4163
  9.020   -6.7141    0.3974   -6.8980    0.3507   -6.7122    0.4063   -6.7362    0.3368   -6.7517    0.4150   -6.7596    0.4226
  9.030   -6.6728    0.4049   -6.8635    0.3534   -6.6702    0.4134   -6.6948    0.3415   -6.7128    0.4220   -6.7206    0.4295
  9.040   -6.6307    0.4131   -6.8287    0.3564   -6.6274    0.4211   -6.6526    0.3466   -6.6733    0.4296   -6.6811    0.4371
  9.050   -6.5878    0.4221   -6.7935    0.3597   -6.5838    0.4296   -6.6096    0.3523   -6.6331    0.4378   -6.6409    0.4453
  9.060   -6.5440    0.4319   -6.7579    0.3632   -6.5391    0.4389   -6.5656    0.3585   -6.5922    0.4468   -6.6001    0.4543
  9.070   -6.4993    0.4426   -6.7219    0.3670   -6.4935    0.4491   -6.5206    0.3654   -6.5507    0.4566   -6.5585    0.4640
  9.080   -6.4535    0.4543   -6.6855    0.3712   -6.4467    0.4603   -6.4744    0.3730   -6.5083    0.4674   -6.5161    0.4747
  9.090   -6.4068    0.4672   -6.6486    0.3757   -6.3987    0.4727   -6.4271    0.3814   -6.4651    0.4791   -6.4729    0.4864
  9.100   -6.3588    0.4814   -6.6112    0.3807   -6.3495    0.4863   -6.3784    0.3908   -6.4211    0.4920   -6.4289    0.4993
  9.110   -6.3096    0.4970   -6.5732    0.3860   -6.2988    0.5013   -6.3283    0.4011   -6.3760    0.5061   -6.3838    0.5133
  9.120   -6.2591    0.5142   -6.5346    0.3918   -6.2466    0.5179   -6.2765    0.4127   -6.3300    0.5216   -6.3378    0.5288
  9.130   -6.2072    0.5332   -6.4954    0.3982   -6.1927    0.5363   -6.2231    0.4255   -6.2830    0.5387   -6.2908    0.5459
  9.140   -6.1538    0.5544   -6.4555    0.4050   -6.1371    0.5568   -6.1678    0.4399   -6.2348    0.5576   -6.2426    0.5647
  9.150   -6.0987    0.5778   -6.4149    0.4125   -6.0795    0.5797   -6.1104    0.4560   -6.1854    0.5784   -6.1932    0.5855
  9.160   -6.0420    0.6039   -6.3735    0.4207   -6.0199    0.6052   -6.0508    0.4742   -6.1348    0.6016   -6.1426    0.6086
  9.170   -5.9835    0.6331   -6.3312    0.4296   -5.9580    0.6339   -5.9888    0.4947   -6.0829    0.6272   -6.0908    0.6342
  9.180   -5.9231    0.6657   -6.2880    0.4394   -5.8938    0.6662   -5.9240    0.5178   -6.0297    0.6558   -6.0376    0.6628
  9.190   -5.8608    0.7024   -6.2438    0.4500   -5.8270    0.7026   -5.8564    0.5442   -5.9752    0.6878   -5.9831    0.6947
  9.200   -5.7965    0.7437   -6.1985    0.4616   -5.7575    0.7439   -5.7855    0.5743   -5.9194    0.7235   -5.9274    0.7303
  9.210   -5.7302    0.7903   -6.1521    0.4744   -5.6852    0.7910   -5.7112    0.6088   -5.8624    0.7635   -5.8703    0.7704
  9.220   -5.6620    0.8431   -6.1044    0.4884   -5.6100    0.8447   -5.6332    0.6485   -5.8042    0.8086   -5.8122    0.8154
  9.230   -5.5921    0.9031   -6.0554    0.5038   -5.5319    0.9064   -5.5511    0.6945   -5.7451    0.8595   -5.7531    0.8662
  9.240   -5.5207    0.9715   -6.0048    0.5207   -5.4510    0.9776   -5.4649    0.7480   -5.6854    0.9170   -5.6935    0.9236
  9.250   -5.4484    1.0496   -5.9528    0.5395   -5.3677    1.0600   -5.3743    0.8107   -5.6257    0.9821   -5.6338    0.9887
  9.260   -5.3758    1.1391   -5.8989    0.5602   -5.2824    1.1558   -5.2794    0.8844   -5.5665    1.0560   -5.5747    1.0625
  9.270   -5.3042    1.2418   -5.8432    0.5833   -5.1964    1.2678   -5.1805    0.9716   -5.5091    1.1399   -5.5173    1.1464
  9.280   -5.2352    1.3597   -5.7855    0.6089   -5.1112    1.3989   -5.0783    1.0752   -5.4548    1.2353   -5.4631    1.2416
  9.290   -5.1713    1.4952   -5.7255    0.6375   -5.0297    1.5530   -4.9743    1.1990   -5.4058    1.3434   -5.4142    1.3497
  9.300   -5.1159    1.6504   -5.6632    0.6696   -4.9562    1.7342   -4.8711    1.3472   -5.3648    1.4656   -5.3732    1.4718
  9.310   -5.0737    1.8275   -5.5981    0.7056   -4.8971    1.9466   -4.7729    1.5247   -5.3356    1.6027   -5.3441    1.6088
  9.320   -5.0511    2.0278   -5.5301    0.7465   -4.8619    2.1940   -4.6867    1.7368   -5.3230    1.7549   -5.3315    1.7609
  9.330   -5.0564    2.2513   -5.4590    0.7930   -4.8639    2.4782   -4.6227    1.9880   -5.3328    1.9209   -5.3415    1.9268
  9.340   -5.0997    2.4953   -5.3846    0.8464   -4.9208    2.7965   -4.5958    2.2802   -5.3720    2.0971   -5.3807    2.1029
  9.350   -5.1925    2.7530   -5.3067    0.9083   -5.0537    3.1384   -4.6254    2.6099   -5.4471    2.2768   -5.4560    2.2825
  9.360   -5.3457    3.0116   -5.2255    0.9806   -5.2835    3.4809   -4.7335    2.9639   -5.5634    2.4493   -5.5724    2.4548
  9.370   -5.5662    3.2514   -5.1420    1.0657   -5.6230    3.7864   -4.9390    3.3150   -5.7216    2.6002   -5.7308    2.6055
  9.380   -5.8524    3.4473   -5.0576    1.1664   -6.0651    4.0058   -5.2477    3.6231   -5.9155    2.7133   -5.9251    2.7183
  9.390   -6.1899    3.5741   -4.9749    1.2852   -6.5741    4.0931   -5.6424    3.8438   -6.1308    2.7757   -6.1405    2.7802
  9.400   -6.5518    3.6145   -4.8974    1.4243   -7.0901    4.0248   -6.0813    3.9454   -6.3468    2.7822   -6.3567    2.7862
  9.410   -6.9054    3.5660   -4.8291    1.5851   -7.5476    3.8136   -6.5109    3.9232   -6.5429    2.7387   -6.5527    2.7421
  9.420   -7.2217    3.4418   -4.7746    1.7688   -7.9001    3.5029   -6.8863    3.8011   -6.7042    2.6596   -6.7138    2.6624
  9.430   -7.4832    3.2644   -4.7393    1.9764   -8.1319    3.1473   -7.1842    3.6180   -6.8251    2.5633   -6.8344    2.5655
  9.440   -7.6844    3.0581   -4.7301    2.2081   -8.2530    2.7934   -7.4043    3.4119   -6.9082    2.4664   -6.9171    2.4682
  9.450   -7.8298    2.8431   -4.7560    2.4630   -8.2874    2.4718   -7.5607    3.2100   -6.9620    2.3817   -6.9704    2.3830
  9.460   -7.9286    2.6333   -4.8278    2.7368   -8.2619    2.1975   -7.6727    3.0268   -6.9979    2.3161   -7.0057    2.3171
  9.470   -7.9918    2.4364   -4.9574    3.0205   -8.2006    1.9740   -7.7592    2.8659   -7.0282    2.2717   -7.0355    2.2726
  9.480   -8.0296    2.2551   -5.1555    3.2987   -8.1227    1.7982   -7.8349    2.7236   -7.0643    2.2455   -7.0709    2.2462
  9.490   -8.0501    2.0885   -5.4275    3.5490   -8.0422    1.6630   -7.9091    2.5915   -7.1148    2.2299   -7.1209    2.2306
  9.500   -8.0584    1.9341   -5.7692    3.7446   -7.9689    1.5591   -7.9845    2.4597   -7.1844    2.2144   -7.1899    2.2152
  9.510   -8.0572    1.7887   -6.1634    3.8592   -7.9078    1.4764   -8.0584    2.3197   -7.2719    2.1874   -7.2769    2.1884
  9.520   -8.0469    1.6501   -6.5809    3.8754   -7.8598    1.4054   -8.1240    2.1668   -7.3703    2.1392   -7.3749    2.1405
  9.530   -8.0270    1.5174   -6.9863    3.7903   -7.8226    1.3385   -8.1730    2.0015   -7.4693    2.0653   -7.4735    2.0669
  9.540   -7.9969    1.3913   -7.3474    3.6171   -7.7918    1.2714   -8.1992    1.8289   -7.5578    1.9668   -7.5617    1.9687
  9.550   -7.9570    1.2732   -7.6423    3.3801   -7.7629    1.2023   -8.2003    1.6564   -7.6273    1.8495   -7.6310    1.8518
  9.560   -7.9086    1.1645   -7.8627    3.1070   -7.7325    1.1318   -8.1776    1.4911   -7.6738    1.7217   -7.6774    1.7243
  9.570   -7.8535    1.0660   -8.0114    2.8228   -7.6985    1.0616   -8.1350    1.3383   -7.6971    1.5912   -7.7006    1.5941
  9.580   -7.7939    0.9781   -8.0980    2.5455   -7.6604    0.9934   -8.0775    1.2010   -7.6995    1.4642   -7.7030    1.4674
  9.590   -7.7317    0.9002   -8.1350    2.2867   -7.6184    0.9287   -8.0100    1.0799   -7.6848    1.3449   -7.6884    1.3483
  9.600   -7.6684    0.8315   -8.1344    2.0519   -7.5732    0.8683   -7.9366    0.9746   -7.6570    1.2353   -7.6606    1.2389
  9.610   -7.6052    0.7712   -8.1069    1.8430   -7.5257    0.8128   -7.8604    0.8837   -7.6196    1.1362   -7.6233    1.1400
  9.620   -7.5428    0.7182   -8.0608    1.6592   -7.4768    0.7621   -7.7836    0.8054   -7.5757    1.0476   -7.5794    1.0515
  9.630   -7.4818    0.6715   -8.0025    1.4987   -7.4272    0.7161   -7.7077    0.7381   -7.5275    0.9687   -7.5313    0.9727
  9.640   -7.4225    0.6303   -7.9366    1.3590   -7.3774    0.6745   -7.6337    0.6800   -7.4768    0.8987   -7.4806    0.9029
  9.650   -7.3651    0.5938   -7.8665    1.2374   -7.3280    0.6369   -7.5621    0.6299   -7.4248    0.8367   -7.4287    0.8409
  9.660   -7.3097    0.5613   -7.7946    1.1317   -7.2792    0.6030   -7.4933    0.5864   -7.3724    0.7817   -7.3763    0.7859
  9.670   -7.2561    0.5323   -7.7224    1.0394   -7.2312    0.5724   -7.4272    0.5485   -7.3203    0.7327   -7.3243    0.7370
  9.680   -7.2045    0.5063   -7.6510    0.9588   -7.1842    0.5446   -7.3640    0.5153   -7.2689    0.6891   -7.2729    0.6935
  9.690   -7.1547    0.4829   -7.5811    0.8881   -7.1382    0.5195   -7.3035    0.4861   -7.2184    0.6502   -7.2225    0.6546
  9.700   -7.1067    0.4618   -7.5131    0.8259   -7.0934    0.4967   -7.2456    0.4603   -7.1691    0.6153   -7.1732    0.6197
  9.710   -7.0603    0.4426   -7.4472    0.7710   -7.0498    0.4759   -7.1901    0.4374   -7.1210    0.5840   -7.1251    0.5884
  9.720   -7.0155    0.4252   -7.3836    0.7224   -7.0073    0.4569   -7.1370    0.4169   -7.0742    0.5557   -7.0784    0.5601
  9.730   -6.9721    0.4093   -7.3223    0.6791   -6.9658    0.4396   -7.0860    0.3986   -7.0287    0.5302   -7.0329    0.5346
  9.740   -6.9301    0.3947   -7.2633    0.6405   -6.9255    0.4237   -7.0371    0.3822   -6.9845    0.5070   -6.9887    0.5114
  9.750   -6.8895    0.3813   -7.2064    0.6059   -6.8862    0.4090   -6.9900    0.3673   -6.9416    0.4859   -6.9458    0.4903
  9.760   -6.8500    0.3690   -7.1517    0.5748   -6.8480    0.3956   -6.9446    0.3538   -6.8999    0.4667   -6.9041    0.4711
  9.770   -6.8117    0.3576   -7.0991    0.5468   -6.8107    0.3831   -6.9009    0.3415   -6.8593    0.4491   -6.8636    0.4535
  9.780   -6.7744    0.3471   -7.0483    0.5214   -6.7743    0.3716   -6.8587    0.3303   -6.8199    0.4329   -6.8241    0.4373
  9.790   -6.7382    0.3373   -6.9994    0.4984   -6.7388    0.3609   -6.8179    0.3201   -6.7815    0.4181   -6.7858    0.4225
  9.800   -6.7029    0.3282   -6.9522    0.4775   -6.7042    0.3510   -6.7783    0.3107   -6.7442    0.4044   -6.7485    0.4088
  9.810   -6.6685    0.3198   -6.9067    0.4584   -6.6704    0.3418   -6.7400    0.3020   -6.7078    0.3917   -6.7121    0.3961
  9.820   -6.6350    0.3119   -6.8626    0.4409   -6.6373    0.3331   -6.7029    0.2940   -6.6724    0.3800   -6.6767    0.3844
  9.830   -6.6022    0.3045   -6.8200    0.4249   -6.6050    0.3251   -6.6668    0.2865   -6.6378    0.3691   -6.6421    0.3735
  9.840   -6.5702    0.2975   -6.7787    0.4102   -6.5733    0.3175   -6.6316    0.2796   -6.6040    0.3589   -6.6083    0.3633
  9.850   -6.5389    0.2910   -6.7387    0.3966   -6.5423    0.3104   -6.5974    0.2732   -6.5711    0.3495   -6.5754    0.3538
  9.860   -6.5082    0.2849   -6.6998    0.3840   -6.5120    0.3038   -6.5641    0.2672   -6.5388    0.3406   -6.5432    0.3450
  9.870   -6.4782    0.2791   -6.6621    0.3724   -6.4822    0.2975   -6.5316    0.2616   -6.5073    0.3324   -6.5117    0.3367
  9.880   -6.4488    0.2736   -6.6254    0.3616   -6.4530    0.2916   -6.4999    0.2563   -6.4765    0.3246   -6.4808    0.3290
  9.890   -6.4200    0.2685   -6.5897    0.3515   -6.4243    0.2860   -6.4688    0.2514   -6.4463    0.3173   -6.4506    0.3217
  9.900   -6.3917    0.2636   -6.5550    0.3422   -6.3962    0.2807   -6.4385    0.2467   -6.4167    0.3105   -6.4210    0.3148
  9.910   -6.3639    0.2589   -6.5211    0.3334   -6.3686    0.2757   -6.4088    0.2423   -6.3877    0.3040   -6.3920    0.3083
  9.920   -6.3366    0.2545   -6.4880    0.3252   -6.3414    0.2709   -6.3797    0.2382   -6.3592    0.2979   -6.3635    0.3022
  9.930   -6.3097    0.2503   -6.4557    0.3176   -6.3147    0.2664   -6.3512    0.2342   -6.3313    0.2922   -6.3356    0.2964
  9.940   -6.2833    0.2463   -6.4242    0.3104   -6.2884    0.2621   -6.3232    0.2305   -6.3038    0.2867   -6.3081    0.2910
  9.950   -6.2574    0.2425   -6.3934    0.3036   -6.2625    0.2580   -6.2958    0.2270   -6.2768    0.2815   -6.2812    0.2858
  9.960   -6.2318    0.2389   -6.3632    0.2973   -6.2370    0.2541   -6.2688    0.2237   -6.2503    0.2766   -6.2546    0.2808
  9.970   -6.2067    0.2354   -6.3336    0.2913   -6.2119    0.2504   -6.2423    0.2205   -6.2242    0.2719   -6.2285    0.2761
  9.980   -6.1819    0.2321   -6.3046    0.2856   -6.1871    0.2469   -6.2163    0.2174   -6.1986    0.2675   -6.2029    0.2717
  9.990   -6.1574    0.2289   -6.2762    0.2802   -6.1627    0.2435   -6.1907    0.2145   -6.1733    0.2633   -6.1776    0.2674
 10.000   -6.1333    0.2259   -6.2484    0.2751   -6.1387    0.2402   -6.1655    0.2117   -6.1484    0.2592   -6.1527    0.2634
