# Macroscopic dielectric function obtained with the BS equation.
#  RPA L0 with KS energies and KS wavefunctions     LOCAL FIELD EFFECTS INCLUDED
# RESONANT-ONLY calculation
# Coulomb term constructed with full W(G1,G2)
# Scissor operator energy =  0.8000 [eV]
# Tolerance = -0.0010 0.0000
# npweps  = 113
# npwwfn  = 283
# nbands  = 8
# loband  = 2
# nkibz   = 3
# nkbz    = 8
# Lorentzian broadening =  0.0001 [eV]
# List of q-points for the optical limit:
# q =  0.938821, 0.000000, 0.000000, [Reduced coords] 
# q =  0.000000, 0.938821, 0.000000, [Reduced coords] 
# q =  0.000000, 0.000000, 0.938821, [Reduced coords] 
# q =  0.000000, 0.813043, 0.813043, [Reduced coords] 
# q =  0.813043, 0.000000, 0.813043, [Reduced coords] 
# q =  0.813043, 0.813043, 0.000000, [Reduced coords] 
# omega [eV]    RE(eps(q=1)) IM(eps(q=1) RE(eps(q=2) ) ... 
  0.000   54.7666    0.0000   54.7533    0.0000   54.7631    0.0000   54.7442    0.0000   54.8010    0.0000   54.8111    0.0000
  0.010   54.7671    0.0032   54.7538    0.0034   54.7637    0.0034   54.7447    0.0032   54.8015    0.0036   54.8116    0.0036
  0.020   54.7687    0.0064   54.7554    0.0069   54.7653    0.0069   54.7463    0.0064   54.8031    0.0072   54.8132    0.0072
  0.030   54.7714    0.0096   54.7581    0.0103   54.7679    0.0103   54.7490    0.0096   54.8058    0.0107   54.8159    0.0108
  0.040   54.7751    0.0129   54.7618    0.0138   54.7717    0.0137   54.7527    0.0128   54.8095    0.0143   54.8196    0.0144
  0.050   54.7799    0.0161   54.7666    0.0172   54.7765    0.0172   54.7575    0.0160   54.8143    0.0179   54.8244    0.0180
  0.060   54.7858    0.0193   54.7725    0.0207   54.7824    0.0206   54.7634    0.0192   54.8202    0.0215   54.8303    0.0215
  0.070   54.7927    0.0225   54.7794    0.0241   54.7893    0.0241   54.7703    0.0224   54.8272    0.0251   54.8373    0.0251
  0.080   54.8008    0.0258   54.7874    0.0276   54.7973    0.0275   54.7783    0.0256   54.8352    0.0287   54.8453    0.0287
  0.090   54.8098    0.0290   54.7965    0.0310   54.8064    0.0310   54.7874    0.0288   54.8443    0.0323   54.8544    0.0323
  0.100   54.8200    0.0322   54.8067    0.0345   54.8166    0.0344   54.7976    0.0320   54.8545    0.0359   54.8646    0.0360
  0.110   54.8312    0.0355   54.8179    0.0379   54.8278    0.0379   54.8088    0.0352   54.8657    0.0395   54.8758    0.0396
  0.120   54.8435    0.0387   54.8302    0.0414   54.8401    0.0413   54.8211    0.0384   54.8781    0.0431   54.8882    0.0432
  0.130   54.8569    0.0419   54.8436    0.0449   54.8535    0.0448   54.8345    0.0416   54.8915    0.0467   54.9016    0.0468
  0.140   54.8714    0.0452   54.8580    0.0483   54.8679    0.0483   54.8489    0.0448   54.9060    0.0503   54.9161    0.0504
  0.150   54.8869    0.0484   54.8736    0.0518   54.8835    0.0518   54.8645    0.0481   54.9215    0.0540   54.9317    0.0541
  0.160   54.9036    0.0517   54.8902    0.0553   54.9001    0.0552   54.8811    0.0513   54.9382    0.0576   54.9483    0.0577
  0.170   54.9213    0.0550   54.9079    0.0588   54.9178    0.0587   54.8988    0.0546   54.9559    0.0612   54.9661    0.0614
  0.180   54.9401    0.0583   54.9267    0.0623   54.9366    0.0622   54.9176    0.0578   54.9748    0.0649   54.9849    0.0650
  0.190   54.9600    0.0615   54.9465    0.0658   54.9565    0.0657   54.9375    0.0611   54.9947    0.0685   55.0048    0.0687
  0.200   54.9809    0.0648   54.9675    0.0693   54.9774    0.0693   54.9584    0.0643   55.0157    0.0722   55.0258    0.0723
  0.210   55.0030    0.0681   54.9896    0.0729   54.9995    0.0728   54.9805    0.0676   55.0378    0.0759   55.0479    0.0760
  0.220   55.0262    0.0714   55.0127    0.0764   55.0227    0.0763   55.0037    0.0709   55.0610    0.0795   55.0712    0.0797
  0.230   55.0505    0.0747   55.0370    0.0799   55.0469    0.0798   55.0279    0.0742   55.0853    0.0832   55.0955    0.0834
  0.240   55.0758    0.0781   55.0623    0.0835   55.0723    0.0834   55.0533    0.0775   55.1107    0.0869   55.1209    0.0871
  0.250   55.1023    0.0814   55.0888    0.0871   55.0988    0.0870   55.0798    0.0808   55.1373    0.0906   55.1474    0.0908
  0.260   55.1299    0.0847   55.1164    0.0906   55.1263    0.0905   55.1073    0.0841   55.1649    0.0944   55.1751    0.0945
  0.270   55.1586    0.0881   55.1451    0.0942   55.1550    0.0941   55.1360    0.0874   55.1937    0.0981   55.2038    0.0983
  0.280   55.1884    0.0914   55.1749    0.0978   55.1849    0.0977   55.1658    0.0908   55.2235    0.1018   55.2337    0.1020
  0.290   55.2193    0.0948   55.2058    0.1014   55.2158    0.1013   55.1967    0.0941   55.2545    0.1056   55.2647    0.1058
  0.300   55.2514    0.0982   55.2378    0.1050   55.2478    0.1049   55.2288    0.0975   55.2866    0.1094   55.2968    0.1096
  0.310   55.2846    0.1016   55.2710    0.1087   55.2810    0.1085   55.2620    0.1008   55.3199    0.1131   55.3301    0.1134
  0.320   55.3189    0.1050   55.3053    0.1123   55.3153    0.1122   55.2963    0.1042   55.3543    0.1169   55.3644    0.1172
  0.330   55.3544    0.1084   55.3407    0.1160   55.3508    0.1158   55.3317    0.1076   55.3898    0.1207   55.4000    0.1210
  0.340   55.3910    0.1119   55.3773    0.1196   55.3874    0.1195   55.3683    0.1110   55.4264    0.1246   55.4366    0.1248
  0.350   55.4287    0.1153   55.4150    0.1233   55.4251    0.1232   55.4060    0.1145   55.4643    0.1284   55.4745    0.1287
  0.360   55.4676    0.1188   55.4539    0.1270   55.4640    0.1269   55.4449    0.1179   55.5032    0.1323   55.5134    0.1325
  0.370   55.5077    0.1223   55.4939    0.1308   55.5040    0.1306   55.4850    0.1214   55.5433    0.1361   55.5536    0.1364
  0.380   55.5489    0.1258   55.5351    0.1345   55.5452    0.1343   55.5262    0.1248   55.5846    0.1400   55.5949    0.1403
  0.390   55.5913    0.1293   55.5775    0.1382   55.5876    0.1381   55.5685    0.1283   55.6271    0.1439   55.6373    0.1442
  0.400   55.6348    0.1328   55.6210    0.1420   55.6311    0.1418   55.6121    0.1318   55.6707    0.1478   55.6810    0.1481
  0.410   55.6795    0.1363   55.6657    0.1458   55.6759    0.1456   55.6568    0.1353   55.7155    0.1518   55.7258    0.1521
  0.420   55.7255    0.1399   55.7116    0.1496   55.7218    0.1494   55.7027    0.1389   55.7615    0.1557   55.7718    0.1561
  0.430   55.7726    0.1435   55.7587    0.1534   55.7689    0.1532   55.7498    0.1424   55.8087    0.1597   55.8190    0.1600
  0.440   55.8209    0.1471   55.8069    0.1573   55.8171    0.1571   55.7981    0.1460   55.8571    0.1637   55.8674    0.1640
  0.450   55.8704    0.1507   55.8564    0.1611   55.8666    0.1609   55.8475    0.1496   55.9067    0.1677   55.9170    0.1681
  0.460   55.9211    0.1543   55.9071    0.1650   55.9173    0.1648   55.8982    0.1532   55.9575    0.1718   55.9678    0.1721
  0.470   55.9730    0.1579   55.9590    0.1689   55.9692    0.1687   55.9501    0.1568   56.0095    0.1758   56.0198    0.1762
  0.480   56.0261    0.1616   56.0121    0.1728   56.0224    0.1726   56.0033    0.1604   56.0627    0.1799   56.0730    0.1803
  0.490   56.0805    0.1653   56.0665    0.1768   56.0767    0.1766   56.0576    0.1641   56.1172    0.1840   56.1275    0.1844
  0.500   56.1361    0.1690   56.1220    0.1807   56.1323    0.1805   56.1132    0.1678   56.1729    0.1882   56.1832    0.1885
  0.510   56.1930    0.1728   56.1789    0.1847   56.1892    0.1845   56.1700    0.1715   56.2299    0.1923   56.2402    0.1927
  0.520   56.2511    0.1765   56.2369    0.1887   56.2473    0.1885   56.2281    0.1752   56.2881    0.1965   56.2984    0.1969
  0.530   56.3105    0.1803   56.2963    0.1928   56.3066    0.1925   56.2875    0.1790   56.3476    0.2007   56.3579    0.2011
  0.540   56.3711    0.1841   56.3569    0.1968   56.3672    0.1966   56.3481    0.1828   56.4083    0.2049   56.4187    0.2053
  0.550   56.4330    0.1879   56.4188    0.2009   56.4291    0.2007   56.4100    0.1866   56.4704    0.2092   56.4807    0.2096
  0.560   56.4962    0.1918   56.4819    0.2050   56.4923    0.2048   56.4732    0.1904   56.5337    0.2135   56.5440    0.2139
  0.570   56.5607    0.1956   56.5464    0.2092   56.5568    0.2089   56.5376    0.1943   56.5983    0.2178   56.6086    0.2182
  0.580   56.6265    0.1995   56.6121    0.2133   56.6226    0.2131   56.6034    0.1981   56.6642    0.2221   56.6746    0.2226
  0.590   56.6936    0.2035   56.6792    0.2175   56.6896    0.2173   56.6705    0.2020   56.7314    0.2265   56.7418    0.2269
  0.600   56.7620    0.2074   56.7476    0.2217   56.7580    0.2215   56.7389    0.2060   56.7999    0.2309   56.8104    0.2313
  0.610   56.8318    0.2114   56.8173    0.2260   56.8278    0.2257   56.8086    0.2099   56.8698    0.2353   56.8802    0.2358
  0.620   56.9029    0.2154   56.8883    0.2303   56.8988    0.2300   56.8797    0.2139   56.9410    0.2398   56.9515    0.2402
  0.630   56.9753    0.2195   56.9607    0.2346   56.9713    0.2343   56.9521    0.2179   57.0136    0.2443   57.0241    0.2447
  0.640   57.0491    0.2235   57.0345    0.2389   57.0450    0.2387   57.0259    0.2220   57.0875    0.2488   57.0980    0.2493
  0.650   57.1243    0.2276   57.1096    0.2433   57.1202    0.2430   57.1010    0.2261   57.1629    0.2533   57.1733    0.2538
  0.660   57.2008    0.2318   57.1861    0.2477   57.1967    0.2474   57.1775    0.2302   57.2395    0.2579   57.2500    0.2584
  0.670   57.2788    0.2359   57.2640    0.2521   57.2746    0.2519   57.2554    0.2343   57.3176    0.2626   57.3281    0.2631
  0.680   57.3581    0.2401   57.3433    0.2566   57.3540    0.2563   57.3348    0.2385   57.3971    0.2672   57.4076    0.2677
  0.690   57.4389    0.2443   57.4240    0.2611   57.4347    0.2608   57.4155    0.2427   57.4780    0.2719   57.4885    0.2724
  0.700   57.5210    0.2486   57.5061    0.2657   57.5169    0.2654   57.4976    0.2469   57.5604    0.2767   57.5709    0.2772
  0.710   57.6047    0.2529   57.5897    0.2702   57.6005    0.2699   57.5812    0.2512   57.6441    0.2814   57.6547    0.2820
  0.720   57.6897    0.2572   57.6747    0.2749   57.6855    0.2746   57.6663    0.2555   57.7293    0.2862   57.7399    0.2868
  0.730   57.7763    0.2616   57.7612    0.2795   57.7720    0.2792   57.7528    0.2598   57.8160    0.2911   57.8266    0.2916
  0.740   57.8643    0.2660   57.8492    0.2842   57.8600    0.2839   57.8407    0.2642   57.9042    0.2960   57.9148    0.2965
  0.750   57.9538    0.2704   57.9386    0.2889   57.9495    0.2886   57.9302    0.2686   57.9939    0.3009   58.0045    0.3015
  0.760   58.0448    0.2749   58.0295    0.2937   58.0404    0.2934   58.0212    0.2731   58.0850    0.3059   58.0957    0.3065
  0.770   58.1373    0.2794   58.1220    0.2985   58.1329    0.2982   58.1136    0.2776   58.1777    0.3109   58.1883    0.3115
  0.780   58.2313    0.2840   58.2160    0.3034   58.2269    0.3031   58.2077    0.2821   58.2719    0.3160   58.2826    0.3165
  0.790   58.3269    0.2886   58.3115    0.3083   58.3225    0.3080   58.3032    0.2867   58.3677    0.3211   58.3783    0.3217
  0.800   58.4240    0.2932   58.4086    0.3132   58.4196    0.3129   58.4003    0.2913   58.4650    0.3262   58.4757    0.3268
  0.810   58.5227    0.2979   58.5072    0.3182   58.5182    0.3179   58.4990    0.2960   58.5639    0.3314   58.5746    0.3320
  0.820   58.6230    0.3026   58.6074    0.3233   58.6185    0.3229   58.5992    0.3007   58.6644    0.3367   58.6751    0.3373
  0.830   58.7249    0.3074   58.7093    0.3283   58.7204    0.3280   58.7011    0.3054   58.7665    0.3420   58.7772    0.3426
  0.840   58.8284    0.3122   58.8127    0.3335   58.8239    0.3331   58.8046    0.3102   58.8702    0.3473   58.8809    0.3479
  0.850   58.9336    0.3170   58.9178    0.3386   58.9290    0.3383   58.9097    0.3150   58.9755    0.3527   58.9863    0.3533
  0.860   59.0404    0.3219   59.0246    0.3439   59.0357    0.3435   59.0165    0.3199   59.0825    0.3582   59.0933    0.3588
  0.870   59.1488    0.3269   59.1330    0.3491   59.1442    0.3488   59.1249    0.3249   59.1912    0.3637   59.2020    0.3643
  0.880   59.2590    0.3319   59.2430    0.3545   59.2543    0.3541   59.2350    0.3299   59.3015    0.3692   59.3124    0.3699
  0.890   59.3708    0.3370   59.3548    0.3599   59.3661    0.3595   59.3468    0.3349   59.4136    0.3748   59.4244    0.3755
  0.900   59.4844    0.3421   59.4683    0.3653   59.4797    0.3649   59.4604    0.3400   59.5274    0.3805   59.5382    0.3812
  0.910   59.5997    0.3472   59.5836    0.3708   59.5949    0.3704   59.5756    0.3451   59.6429    0.3862   59.6538    0.3869
  0.920   59.7168    0.3524   59.7005    0.3763   59.7120    0.3760   59.6927    0.3503   59.7602    0.3920   59.7711    0.3927
  0.930   59.8356    0.3577   59.8193    0.3819   59.8308    0.3816   59.8115    0.3556   59.8793    0.3979   59.8902    0.3985
  0.940   59.9563    0.3630   59.9399    0.3876   59.9514    0.3872   59.9321    0.3609   60.0001    0.4038   60.0111    0.4045
  0.950   60.0787    0.3684   60.0622    0.3933   60.0738    0.3929   60.0545    0.3662   60.1228    0.4097   60.1338    0.4104
  0.960   60.2030    0.3738   60.1865    0.3991   60.1980    0.3987   60.1787    0.3716   60.2473    0.4158   60.2583    0.4165
  0.970   60.3291    0.3793   60.3125    0.4050   60.3241    0.4046   60.3048    0.3771   60.3737    0.4219   60.3847    0.4226
  0.980   60.4572    0.3849   60.4405    0.4109   60.4521    0.4105   60.4328    0.3827   60.5020    0.4280   60.5130    0.4288
  0.990   60.5871    0.3905   60.5703    0.4169   60.5820    0.4165   60.5627    0.3883   60.6322    0.4343   60.6432    0.4350
  1.000   60.7189    0.3962   60.7020    0.4229   60.7138    0.4225   60.6945    0.3939   60.7643    0.4406   60.7753    0.4413
  1.010   60.8527    0.4019   60.8357    0.4290   60.8475    0.4286   60.8282    0.3997   60.8983    0.4469   60.9094    0.4477
  1.020   60.9884    0.4077   60.9714    0.4352   60.9832    0.4348   60.9639    0.4054   61.0343    0.4534   61.0454    0.4542
  1.030   61.1262    0.4136   61.1090    0.4415   61.1209    0.4410   61.1016    0.4113   61.1723    0.4599   61.1834    0.4607
  1.040   61.2659    0.4196   61.2487    0.4478   61.2606    0.4474   61.2413    0.4172   61.3123    0.4665   61.3235    0.4673
  1.050   61.4077    0.4256   61.3904    0.4542   61.4023    0.4538   61.3831    0.4232   61.4544    0.4732   61.4656    0.4740
  1.060   61.5516    0.4317   61.5342    0.4607   61.5462    0.4602   61.5269    0.4293   61.5985    0.4799   61.6097    0.4807
  1.070   61.6975    0.4378   61.6800    0.4672   61.6920    0.4668   61.6728    0.4355   61.7448    0.4868   61.7560    0.4876
  1.080   61.8455    0.4441   61.8280    0.4739   61.8401    0.4734   61.8208    0.4417   61.8931    0.4937   61.9044    0.4945
  1.090   61.9957    0.4504   61.9781    0.4806   61.9902    0.4801   61.9709    0.4480   62.0436    0.5007   62.0549    0.5015
  1.100   62.1481    0.4568   62.1303    0.4874   62.1425    0.4869   62.1233    0.4544   62.1963    0.5078   62.2076    0.5086
  1.110   62.3027    0.4633   62.2848    0.4942   62.2970    0.4938   62.2778    0.4608   62.3512    0.5150   62.3625    0.5158
  1.120   62.4595    0.4698   62.4415    0.5012   62.4538    0.5007   62.4345    0.4674   62.5083    0.5222   62.5196    0.5231
  1.130   62.6185    0.4764   62.6004    0.5083   62.6128    0.5078   62.5935    0.4740   62.6676    0.5296   62.6790    0.5304
  1.140   62.7798    0.4832   62.7617    0.5154   62.7740    0.5149   62.7548    0.4807   62.8293    0.5370   62.8407    0.5379
  1.150   62.9435    0.4900   62.9252    0.5226   62.9376    0.5222   62.9184    0.4875   62.9933    0.5446   63.0047    0.5454
  1.160   63.1095    0.4969   63.0911    0.5300   63.1036    0.5295   63.0844    0.4944   63.1596    0.5522   63.1710    0.5531
  1.170   63.2778    0.5039   63.2594    0.5374   63.2719    0.5369   63.2527    0.5014   63.3283    0.5600   63.3398    0.5608
  1.180   63.4486    0.5109   63.4300    0.5449   63.4426    0.5444   63.4234    0.5085   63.4994    0.5678   63.5109    0.5687
  1.190   63.6219    0.5181   63.6031    0.5525   63.6158    0.5520   63.5966    0.5156   63.6730    0.5758   63.6845    0.5767
  1.200   63.7976    0.5254   63.7787    0.5602   63.7914    0.5597   63.7723    0.5229   63.8491    0.5838   63.8606    0.5847
  1.210   63.9758    0.5328   63.9568    0.5681   63.9696    0.5676   63.9505    0.5303   64.0277    0.5920   64.0393    0.5929
  1.220   64.1565    0.5402   64.1375    0.5760   64.1503    0.5755   64.1312    0.5377   64.2088    0.6003   64.2204    0.6012
  1.230   64.3399    0.5478   64.3207    0.5840   64.3336    0.5835   64.3145    0.5453   64.3925    0.6087   64.4042    0.6096
  1.240   64.5259    0.5555   64.5066    0.5922   64.5195    0.5917   64.5004    0.5530   64.5789    0.6172   64.5906    0.6181
  1.250   64.7145    0.5633   64.6951    0.6005   64.7081    0.6000   64.6890    0.5608   64.7679    0.6258   64.7797    0.6267
  1.260   64.9059    0.5712   64.8863    0.6088   64.8994    0.6083   64.8803    0.5687   64.9597    0.6346   64.9714    0.6355
  1.270   65.0999    0.5792   65.0803    0.6174   65.0934    0.6168   65.0743    0.5767   65.1542    0.6434   65.1659    0.6444
  1.280   65.2968    0.5873   65.2770    0.6260   65.2902    0.6255   65.2712    0.5848   65.3514    0.6524   65.3633    0.6534
  1.290   65.4965    0.5956   65.4765    0.6347   65.4898    0.6342   65.4708    0.5930   65.5516    0.6616   65.5634    0.6625
  1.300   65.6990    0.6040   65.6790    0.6436   65.6923    0.6431   65.6733    0.6014   65.7545    0.6709   65.7664    0.6718
  1.310   65.9045    0.6124   65.8843    0.6526   65.8977    0.6521   65.8787    0.6099   65.9604    0.6803   65.9723    0.6812
  1.320   66.1129    0.6211   66.0926    0.6618   66.1060    0.6612   66.0871    0.6185   66.1693    0.6898   66.1812    0.6908
  1.330   66.3243    0.6298   66.3038    0.6710   66.3173    0.6705   66.2985    0.6273   66.3812    0.6995   66.3931    0.7005
  1.340   66.5388    0.6387   66.5181    0.6805   66.5317    0.6799   66.5129    0.6362   66.5961    0.7093   66.6081    0.7103
  1.350   66.7564    0.6477   66.7356    0.6900   66.7492    0.6895   66.7304    0.6452   66.8141    0.7193   66.8262    0.7203
  1.360   66.9771    0.6569   66.9561    0.6997   66.9698    0.6992   66.9511    0.6544   67.0353    0.7294   67.0474    0.7304
  1.370   67.2010    0.6662   67.1799    0.7096   67.1937    0.7090   67.1749    0.6637   67.2597    0.7397   67.2718    0.7407
  1.380   67.4281    0.6756   67.4069    0.7196   67.4207    0.7190   67.4020    0.6731   67.4873    0.7502   67.4995    0.7512
  1.390   67.6586    0.6852   67.6372    0.7298   67.6511    0.7292   67.6324    0.6827   67.7183    0.7608   67.7305    0.7618
  1.400   67.8924    0.6950   67.8708    0.7401   67.8848    0.7395   67.8662    0.6925   67.9526    0.7716   67.9649    0.7726
  1.410   68.1296    0.7049   68.1078    0.7506   68.1219    0.7500   68.1034    0.7024   68.1903    0.7826   68.2026    0.7836
  1.420   68.3703    0.7150   68.3484    0.7612   68.3625    0.7607   68.3440    0.7125   68.4316    0.7937   68.4439    0.7947
  1.430   68.6145    0.7252   68.5924    0.7721   68.6067    0.7715   68.5882    0.7228   68.6763    0.8050   68.6887    0.8061
  1.440   68.8623    0.7356   68.8400    0.7831   68.8544    0.7825   68.8359    0.7332   68.9247    0.8165   68.9371    0.8176
  1.450   69.1137    0.7462   69.0913    0.7943   69.1057    0.7937   69.0873    0.7438   69.1767    0.8282   69.1891    0.8293
  1.460   69.3689    0.7569   69.3463    0.8057   69.3608    0.8051   69.3424    0.7545   69.4324    0.8401   69.4449    0.8412
  1.470   69.6278    0.7679   69.6050    0.8172   69.6196    0.8167   69.6013    0.7655   69.6919    0.8522   69.7045    0.8533
  1.480   69.8906    0.7790   69.8676    0.8290   69.8823    0.8284   69.8641    0.7766   69.9553    0.8645   69.9679    0.8656
  1.490   70.1573    0.7903   70.1341    0.8410   70.1489    0.8404   70.1307    0.7880   70.2226    0.8770   70.2352    0.8781
  1.500   70.4280    0.8018   70.4046    0.8532   70.4194    0.8526   70.4013    0.7995   70.4939    0.8897   70.5066    0.8908
  1.510   70.7027    0.8135   70.6791    0.8655   70.6941    0.8650   70.6760    0.8112   70.7692    0.9027   70.7819    0.9038
  1.520   70.9815    0.8254   70.9577    0.8781   70.9728    0.8776   70.9548    0.8232   71.0487    0.9158   71.0615    0.9169
  1.530   71.2646    0.8375   71.2406    0.8910   71.2557    0.8904   71.2378    0.8353   71.3324    0.9292   71.3452    0.9303
  1.540   71.5519    0.8499   71.5277    0.9040   71.5429    0.9034   71.5251    0.8477   71.6204    0.9429   71.6333    0.9440
  1.550   71.8436    0.8625   71.8192    0.9173   71.8345    0.9167   71.8167    0.8603   71.9127    0.9568   71.9257    0.9579
  1.560   72.1397    0.8752   72.1151    0.9308   72.1305    0.9302   72.1128    0.8731   72.2095    0.9709   72.2225    0.9720
  1.570   72.4403    0.8883   72.4155    0.9446   72.4310    0.9440   72.4134    0.8862   72.5109    0.9853   72.5239    0.9864
  1.580   72.7456    0.9015   72.7205    0.9586   72.7361    0.9580   72.7186    0.8995   72.8169    0.9999   72.8300    1.0011
  1.590   73.0555    0.9151   73.0302    0.9729   73.0460    0.9723   73.0286    0.9131   73.1275    1.0149   73.1407    1.0160
  1.600   73.3703    0.9288   73.3447    0.9874   73.3606    0.9868   73.3433    0.9269   73.4430    1.0301   73.4562    1.0312
  1.610   73.6899    0.9429   73.6641    1.0023   73.6801    1.0017   73.6628    0.9410   73.7634    1.0456   73.7767    1.0467
  1.620   74.0145    0.9572   73.9885    1.0174   74.0045    1.0168   73.9874    0.9553   74.0888    1.0614   74.1021    1.0625
  1.630   74.3442    0.9717   74.3179    1.0328   74.3341    1.0321   74.3171    0.9700   74.4193    1.0775   74.4326    1.0786
  1.640   74.6790    0.9866   74.6525    1.0484   74.6688    1.0478   74.6519    0.9849   74.7549    1.0939   74.7684    1.0950
  1.650   75.0191    1.0017   74.9924    1.0644   75.0088    1.0638   74.9920    1.0001   75.0959    1.1106   75.1094    1.1117
  1.660   75.3647    1.0172   75.3376    1.0807   75.3541    1.0801   75.3375    1.0156   75.4423    1.1276   75.4558    1.1288
  1.670   75.7157    1.0329   75.6884    1.0974   75.7050    1.0968   75.6885    1.0314   75.7941    1.1450   75.8078    1.1462
  1.680   76.0723    1.0490   76.0448    1.1143   76.0615    1.1137   76.0451    1.0476   76.1517    1.1628   76.1654    1.1639
  1.690   76.4347    1.0654   76.4069    1.1316   76.4237    1.1310   76.4075    1.0640   76.5149    1.1808   76.5287    1.1820
  1.700   76.8030    1.0821   76.7748    1.1493   76.7918    1.1487   76.7757    1.0808   76.8841    1.1993   76.8979    1.2005
  1.710   77.1772    1.0992   77.1487    1.1673   77.1658    1.1667   77.1499    1.0980   77.2592    1.2181   77.2731    1.2193
  1.720   77.5575    1.1166   77.5287    1.1857   77.5460    1.1851   77.5302    1.1155   77.6405    1.2374   77.6545    1.2385
  1.730   77.9440    1.1344   77.9150    1.2044   77.9324    1.2038   77.9167    1.1334   78.0280    1.2570   78.0420    1.2582
  1.740   78.3369    1.1526   78.3076    1.2236   78.3251    1.2230   78.3096    1.1517   78.4220    1.2771   78.4360    1.2782
  1.750   78.7364    1.1712   78.7067    1.2432   78.7244    1.2425   78.7091    1.1703   78.8224    1.2975   78.8366    1.2987
  1.760   79.1425    1.1901   79.1125    1.2631   79.1303    1.2625   79.1151    1.1894   79.2295    1.3184   79.2438    1.3196
  1.770   79.5554    1.2095   79.5250    1.2835   79.5430    1.2829   79.5280    1.2089   79.6435    1.3398   79.6578    1.3410
  1.780   79.9752    1.2293   79.9445    1.3044   79.9626    1.3038   79.9479    1.2288   80.0644    1.3616   80.0788    1.3628
  1.790   80.4022    1.2495   80.3712    1.3257   80.3894    1.3251   80.3749    1.2491   80.4925    1.3839   80.5070    1.3851
  1.800   80.8365    1.2702   80.8051    1.3475   80.8235    1.3469   80.8091    1.2699   80.9279    1.4067   80.9425    1.4079
  1.810   81.2782    1.2913   81.2464    1.3698   81.2650    1.3692   81.2508    1.2912   81.3708    1.4300   81.3854    1.4312
  1.820   81.7275    1.3129   81.6954    1.3925   81.7141    1.3919   81.7002    1.3129   81.8213    1.4538   81.8360    1.4550
  1.830   82.1846    1.3351   82.1521    1.4158   82.1710    1.4152   82.1573    1.3352   82.2796    1.4782   82.2944    1.4794
  1.840   82.6497    1.3577   82.6168    1.4396   82.6359    1.4390   82.6225    1.3580   82.7460    1.5032   82.7609    1.5043
  1.850   83.1230    1.3808   83.0897    1.4640   83.1089    1.4634   83.0958    1.3813   83.2206    1.5287   83.2355    1.5298
  1.860   83.6047    1.4045   83.5710    1.4889   83.5904    1.4884   83.5775    1.4051   83.7035    1.5548   83.7186    1.5559
  1.870   84.0949    1.4288   84.0608    1.5145   84.0804    1.5139   84.0677    1.4296   84.1951    1.5815   84.2103    1.5827
  1.880   84.5940    1.4536   84.5594    1.5406   84.5792    1.5400   84.5668    1.4546   84.6955    1.6089   84.7108    1.6100
  1.890   85.1020    1.4791   85.0670    1.5674   85.0869    1.5668   85.0749    1.4802   85.2050    1.6369   85.2203    1.6380
  1.900   85.6193    1.5051   85.5839    1.5948   85.6040    1.5942   85.5923    1.5065   85.7237    1.6656   85.7391    1.6667
  1.910   86.1461    1.5318   86.1102    1.6228   86.1305    1.6223   86.1191    1.5334   86.2519    1.6950   86.2675    1.6961
  1.920   86.6825    1.5592   86.6462    1.6516   86.6667    1.6511   86.6556    1.5610   86.7899    1.7251   86.8055    1.7262
  1.930   87.2290    1.5872   87.1921    1.6811   87.2128    1.6805   87.2021    1.5892   87.3379    1.7560   87.3536    1.7571
  1.940   87.7856    1.6160   87.7483    1.7113   87.7692    1.7108   87.7588    1.6182   87.8961    1.7877   87.9120    1.7888
  1.950   88.3528    1.6455   88.3149    1.7423   88.3360    1.7418   88.3261    1.6480   88.4649    1.8201   88.4809    1.8212
  1.960   88.9307    1.6757   88.8923    1.7741   88.9136    1.7736   88.9041    1.6785   89.0445    1.8534   89.0606    1.8545
  1.970   89.5197    1.7068   89.4808    1.8067   89.5023    1.8062   89.4932    1.7098   89.6351    1.8876   89.6514    1.8887
  1.980   90.1200    1.7387   90.0806    1.8402   90.1023    1.8397   90.0936    1.7419   90.2372    1.9227   90.2536    1.9237
  1.990   90.7321    1.7714   90.6920    1.8745   90.7140    1.8740   90.7057    1.7749   90.8510    1.9587   90.8675    1.9597
  2.000   91.3561    1.8050   91.3155    1.9098   91.3377    1.9093   91.3299    1.8088   91.4769    1.9956   91.4935    1.9967
  2.010   91.9924    1.8395   91.9512    1.9460   91.9736    1.9455   91.9663    1.8436   92.1151    2.0336   92.1318    2.0346
  2.020   92.6414    1.8749   92.5996    1.9832   92.6223    1.9827   92.6155    1.8794   92.7661    2.0725   92.7829    2.0736
  2.030   93.3035    1.9113   93.2610    2.0214   93.2840    2.0210   93.2777    1.9162   93.4301    2.1126   93.4471    2.1136
  2.040   93.9789    1.9488   93.9359    2.0607   93.9590    2.0603   93.9533    1.9540   94.1076    2.1538   94.1247    2.1548
  2.050   94.6682    1.9873   94.6245    2.1011   94.6479    2.1007   94.6427    1.9928   94.7990    2.1961   94.8162    2.1971
  2.060   95.3717    2.0269   95.3273    2.1426   95.3510    2.1422   95.3464    2.0328   95.5046    2.2397   95.5220    2.2407
  2.070   96.0898    2.0676   96.0447    2.1853   96.0686    2.1849   96.0647    2.0740   96.2249    2.2845   96.2424    2.2854
  2.080   96.8229    2.1096   96.7771    2.2293   96.8014    2.2289   96.7980    2.1164   96.9604    2.3306   96.9780    2.3315
  2.090   97.5716    2.1527   97.5251    2.2745   97.5496    2.2742   97.5470    2.1600   97.7114    2.3780   97.7292    2.3790
  2.100   98.3363    2.1972   98.2890    2.3211   98.3138    2.3208   98.3119    2.2049   98.4785    2.4269   98.4965    2.4278
  2.110   99.1175    2.2430   99.0694    2.3691   99.0945    2.3688   99.0933    2.2512   99.2622    2.4772   99.2803    2.4781
  2.120   99.9157    2.2902   99.8668    2.4185   99.8922    2.4183   99.8918    2.2989  100.0629    2.5291  100.0813    2.5299
  2.130  100.7315    2.3388  100.6817    2.4695  100.7075    2.4692  100.7079    2.3481  100.8813    2.5826  100.8998    2.5834
  2.140  101.5654    2.3890  101.5147    2.5220  101.5408    2.5218  101.5420    2.3989  101.7179    2.6377  101.7366    2.6385
  2.150  102.4179    2.4407  102.3664    2.5762  102.3929    2.5760  102.3949    2.4512  102.5733    2.6945  102.5922    2.6953
  2.160  103.2898    2.4941  103.2374    2.6321  103.2642    2.6319  103.2672    2.5052  103.4481    2.7532  103.4671    2.7539
  2.170  104.1817    2.5493  104.1283    2.6898  104.1554    2.6896  104.1594    2.5610  104.3429    2.8137  104.3621    2.8144
  2.180  105.0942    2.6062  105.0398    2.7493  105.0673    2.7492  105.0723    2.6186  105.2584    2.8762  105.2779    2.8769
  2.190  106.0280    2.6650  105.9726    2.8109  106.0005    2.8108  106.0065    2.6781  106.1954    2.9408  106.2150    2.9414
  2.200  106.9839    2.7258  106.9274    2.8744  106.9557    2.8744  106.9628    2.7396  107.1545    3.0075  107.1744    3.0081
  2.210  107.9626    2.7886  107.9051    2.9401  107.9337    2.9401  107.9420    2.8033  108.1366    3.0765  108.1566    3.0770
  2.220  108.9649    2.8536  108.9063    3.0080  108.9354    3.0081  108.9448    2.8691  109.1424    3.1478  109.1627    3.1483
  2.230  109.9917    2.9208  109.9319    3.0783  109.9614    3.0784  109.9721    2.9372  110.1728    3.2216  110.1933    3.2221
  2.240  111.0439    2.9904  110.9829    3.1510  111.0128    3.1511  111.0248    3.0077  111.2286    3.2980  111.2494    3.2984
  2.250  112.1223    3.0625  112.0601    3.2263  112.0905    3.2265  112.1039    3.0807  112.3109    3.3771  112.3319    3.3775
  2.260  113.2280    3.1372  113.1646    3.3043  113.1954    3.3045  113.2102    3.1564  113.4206    3.4590  113.4418    3.4594
  2.270  114.3620    3.2146  114.2972    3.3852  114.3285    3.3854  114.3448    3.2349  114.5586    3.5440  114.5802    3.5442
  2.280  115.5254    3.2948  115.4592    3.4690  115.4910    3.4693  115.5089    3.3162  115.7262    3.6320  115.7480    3.6322
  2.290  116.7192    3.3781  116.6516    3.5559  116.6839    3.5563  116.7035    3.4007  116.9244    3.7234  116.9465    3.7235
  2.300  117.9447    3.4646  117.8756    3.6461  117.9085    3.6465  117.9297    3.4884  118.1545    3.8182  118.1769    3.8182
  2.310  119.2031    3.5543  119.1325    3.7398  119.1659    3.7403  119.1890    3.5794  119.4176    3.9166  119.4403    3.9166
  2.320  120.4958    3.6476  120.4235    3.8371  120.4575    3.8376  120.4826    3.6741  120.7151    4.0189  120.7382    4.0188
  2.330  121.8241    3.7446  121.7502    3.9382  121.7848    3.9388  121.8118    3.7725  122.0485    4.1253  122.0719    4.1251
  2.340  123.1896    3.8455  123.1139    4.0434  123.1491    4.0441  123.1782    3.8749  123.4192    4.2359  123.4429    4.2356
  2.350  124.5937    3.9505  124.5161    4.1529  124.5520    4.1536  124.5834    3.9815  124.8287    4.3509  124.8528    4.3506
  2.360  126.0380    4.0598  125.9586    4.2668  125.9951    4.2676  126.0289    4.0925  126.2788    4.4708  126.3032    4.4704
  2.370  127.5245    4.1737  127.4431    4.3855  127.4802    4.3864  127.5165    4.2082  127.7711    4.5957  127.7958    4.5952
  2.380  129.0548    4.2925  128.9713    4.5093  129.0092    4.5103  129.0480    4.3289  129.3075    4.7258  129.3326    4.7252
  2.390  130.6309    4.4165  130.5453    4.6383  130.5839    4.6394  130.6255    4.4548  130.8899    4.8616  130.9155    4.8609
  2.400  132.2549    4.5458  132.1671    4.7730  132.2064    4.7742  132.2509    4.5863  132.5205    5.0034  132.5465    5.0026
  2.410  133.9289    4.6810  133.8388    4.9137  133.8789    4.9150  133.9265    4.7237  134.2015    5.1515  134.2280    5.1505
  2.420  135.6554    4.8223  135.5628    5.0608  135.6038    5.0622  135.6545    4.8674  135.9351    5.3063  135.9621    5.3052
  2.430  137.4368    4.9701  137.3416    5.2145  137.3834    5.2161  137.4376    5.0177  137.7240    5.4682  137.7514    5.4670
  2.440  139.2756    5.1248  139.1778    5.3755  139.2205    5.3772  139.2783    5.1751  139.5706    5.6376  139.5985    5.6363
  2.450  141.1748    5.2870  141.0741    5.5441  141.1178    5.5459  141.1794    5.3400  141.4779    5.8152  141.5064    5.8137
  2.460  143.1373    5.4569  143.0336    5.7208  143.0783    5.7228  143.1439    5.5130  143.4489    6.0013  143.4779    5.9997
  2.470  145.1663    5.6353  145.0595    5.9062  145.1052    5.9083  145.1751    5.6945  145.4868    6.1966  145.5164    6.1948
  2.480  147.2652    5.8226  147.1551    6.1008  147.2019    6.1031  147.2763    5.8853  147.5950    6.4017  147.6252    6.3997
  2.490  149.4376    6.0196  149.3242    6.3054  149.3720    6.3079  149.4513    6.0858  149.7772    6.6173  149.8080    6.6151
  2.500  151.6876    6.2267  151.5705    6.5205  151.6195    6.5232  151.7039    6.2968  152.0373    6.8441  152.0689    6.8417
  2.510  154.0192    6.4449  153.8983    6.7470  153.9486    6.7499  154.0384    6.5190  154.3797    7.0829  154.4119    7.0803
  2.520  156.4370    6.6748  156.3121    6.9857  156.3637    6.9888  156.4592    6.7534  156.8087    7.3345  156.8417    7.3317
  2.530  158.9459    6.9174  158.8166    7.2375  158.8696    7.2408  158.9713    7.0007  159.3293    7.6001  159.3631    7.5970
  2.540  161.5510    7.1737  161.4172    7.5033  161.4716    7.5069  161.5799    7.2619  161.9468    7.8805  161.9814    7.8772
  2.550  164.2580    7.4447  164.1194    7.7843  164.1753    7.7882  164.2906    7.5382  164.6668    8.1770  164.7023    8.1734
  2.560  167.0730    7.7315  166.9293    8.0816  166.9868    8.0858  167.1095    7.8308  167.4954    8.4908  167.5318    8.4869
  2.570  170.0024    8.0354  169.8533    8.3967  169.9126    8.4012  170.0433    8.1409  170.4393    8.8233  170.4767    8.8191
  2.580  173.0535    8.3579  172.8987    8.7308  172.9597    8.7357  173.0990    8.4700  173.5057    9.1761  173.5441    9.1716
  2.590  176.2340    8.7005  176.0730    9.0857  176.1359    9.0910  176.2844    8.8198  176.7022    9.5509  176.7417    9.5461
  2.600  179.5522    9.0650  179.3847    9.4631  179.4496    9.4688  179.6079    9.1919  180.0374    9.9496  180.0780    9.9444
  2.610  183.0173    9.4532  182.8428    9.8651  182.9099    9.8711  183.0786    9.5885  183.5204   10.3743  183.5623   10.3686
  2.620  186.6392    9.8674  186.4573   10.2937  186.5266   10.3002  186.7067   10.0116  187.1613   10.8273  187.2046   10.8212
  2.630  190.4288   10.3099  190.2389   10.7514  190.3106   10.7585  190.5029   10.4638  190.9711   11.3112  191.0157   11.3046
  2.640  194.3980   10.7834  194.1995   11.2411  194.2738   11.2488  194.4793   10.9478  194.9617   11.8290  195.0079   11.8220
  2.650  198.5599   11.2909  198.3521   11.7658  198.4292   11.7741  198.6490   11.4667  199.1463   12.3840  199.1941   12.3764
  2.660  202.9289   11.8358  202.7111   12.3289  202.7912   12.3379  203.0263   12.0239  203.5394   12.9798  203.5890   12.9717
  2.670  207.5207   12.4218  207.2921   12.9345  207.3754   12.9442  207.6272   12.6236  208.1570   13.6207  208.2085   13.6120
  2.680  212.3529   13.0535  212.1127   13.5868  212.1993   13.5973  212.4693   13.2700  213.0166   14.3114  213.0702   14.3020
  2.690  217.4448   13.7355  217.1919   14.2910  217.2823   14.3024  217.5719   13.9682  218.1379   15.0572  218.1936   15.0471
  2.700  222.8179   14.4736  222.5513   15.0527  222.6456   15.0652  222.9567   14.7240  223.5424   15.8643  223.6005   15.8534
  2.710  228.4962   15.2741  228.2145   15.8786  228.3132   15.8922  228.6478   15.5440  229.2543   16.7396  229.3151   16.7279
  2.720  234.5064   16.1444  234.2083   16.7761  234.3116   16.7909  234.6719   16.4358  235.3006   17.6913  235.3642   17.6787
  2.730  240.8784   17.0929  240.5624   17.7539  240.6708   17.7701  241.0592   17.4081  241.7114   18.7285  241.7781   18.7149
  2.740  247.6460   18.1295  247.3101   18.8220  247.4240   18.8398  247.8434   18.4709  248.5207   19.8620  248.5907   19.8473
  2.750  254.8469   19.2655  254.4892   19.9921  254.6092   20.0116  255.0627   19.6362  255.7667   21.1043  255.8404   21.0885
  2.760  262.5242   20.5142  262.1424   21.2777  262.2691   21.2992  262.7603   20.9175  263.4926   22.4699  263.5704   22.4528
  2.770  270.7267   21.8912  270.3181   22.6949  270.4521   22.7186  270.9851   22.3310  271.7477   23.9759  271.8300   23.9575
  2.780  279.5101   23.4151  279.0714   24.2624  279.2136   24.2886  279.7930   23.8958  280.5880   25.6426  280.6754   25.6227
  2.790  288.9380   25.1076  288.4659   26.0025  288.6170   26.0317  289.2483   25.6345  290.0778   27.4940  290.1708   27.4724
  2.800  299.0839   26.9949  298.5741   27.9420  298.7352   27.9746  299.4246   27.5741  300.2910   29.5586  300.3903   29.5353
  2.810  310.0328   29.1084  309.4803   30.1129  309.6526   30.1494  310.4073   29.7472  311.3132   31.8711  311.4195   31.8459
  2.820  321.8833   31.4864  321.2825   32.5541  321.4673   32.5950  322.2957   32.1931  323.2437   34.4732  323.3580   34.4458
  2.830  334.7510   34.1752  334.0949   35.3128  334.2939   35.3589  335.2057   34.9601  336.1987   37.4159  336.3221   37.3862
  2.840  348.7718   37.2321  348.0521   38.4473  348.2672   38.4997  349.2740   38.1073  350.3150   40.7620  350.4487   40.7298
  2.850  364.1066   40.7281  363.3135   42.0299  363.5469   42.0896  364.6624   41.7084  365.7542   44.5897  365.8999   44.5547
  2.860  380.9475   44.7524  380.0686   46.1511  380.3230   46.2196  381.5636   45.8558  382.7091   48.9967  382.8687   48.9587
  2.870  399.5250   49.4181  398.5455   50.9257  398.8242   51.0049  400.2095   50.6668  401.4112   54.1074  401.5869   54.0661
  2.880  420.1185   54.8700  419.0198   56.5007  419.3268   56.5929  420.8805   56.2917  422.1402   60.0810  422.3349   60.0362
  2.890  443.0697   61.2966  441.8284   63.0670  442.1684   63.1753  443.9196   62.9262  445.2377   67.1248  445.4551   67.0762
  2.900  468.7996   68.9463  467.3859   70.8760  467.7651   71.0044  469.7493   70.8284  471.1241   75.5119  471.3686   75.4594
  2.910  497.8331   78.1517  496.2087   80.2640  496.6344   80.4179  498.8958   80.3439  500.3216   85.6082  500.5990   85.5518
  2.920  530.8312   89.3663  528.9455   91.6886  529.4273   91.8754  532.0211   91.9445  533.4853   97.9126  533.8033   97.8527
  2.930  568.6353  103.2207  566.4211  105.7855  566.9712  106.0155  569.9665  106.2864  571.4456  113.1191  571.8141  113.0564
  2.940  612.3296  120.6116  609.6953  123.4568  610.3293  123.7447  613.8138  124.3033  615.2645  132.2137  615.6969  132.1500
  2.950  663.3255  142.8469  660.1439  146.0153  660.8823  146.3827  664.9669  147.3573  666.3114  156.6339  666.8263  156.5728
  2.960  723.4782  171.8891  719.5685  175.4265  720.4381  175.9059  725.2618  177.4931  726.3606  188.5335  726.9840  188.4819
  2.970  795.2376  210.7812  790.3356  214.7292  791.3719  215.3713  797.1041  217.8806  797.7025  231.2442  798.4718  231.2155
  2.980  881.8168  264.4187  875.5265  268.7946  876.7750  269.6820  883.6062  273.6150  883.2268  290.1024  884.1972  290.1231
  2.990  987.2821  341.0090  978.9933  345.7557  980.5093  347.0280  988.6020  353.2213  986.3172  373.9881  987.5710  374.1124
  3.000 1116.1704  454.9345 1104.9230  459.7899 1106.7594  461.6947 1116.0769  471.5731 1110.0034  498.2540 1111.6641  498.5969
  3.010 1271.1734  632.4765 1255.4545  636.6327 1257.6067  639.6260 1267.3726  655.5960 1253.5115  690.2466 1255.7520  691.0655
  3.020 1443.5620  922.6903 1421.1375  923.8982 1423.3281  928.8262 1430.4548  954.5346 1400.1000  998.3830 1403.0860 1000.2779
  3.030 1578.0706 1411.3908 1546.6292 1403.7185 1547.5455 1411.9595 1543.0094 1450.3633 1478.5504 1497.0418 1482.0035 1501.3567
  3.040 1468.5383 2188.9924 1431.2108 2158.7432 1426.5102 2170.8943 1393.6841 2213.5867 1275.2267 2225.9515 1276.5466 2234.6242
  3.050  667.2227 3033.1241  653.5661 2967.4157  637.0666 2975.8911  573.8388 2991.7621  450.4195 2896.1598  443.1219 2906.0344
  3.060 -723.1524 3014.0506 -679.2638 2960.6687 -696.7669 2952.9437 -754.8455 2923.2198 -758.3624 2777.0224 -770.4477 2777.0040
  3.070 ********* 2125.9406 ********* 2121.6422 ********* 2108.7915 ********* 2061.0855 ********* 1985.5546 ********* 1979.6215
  3.080 ********* 1337.6281 ********* 1349.8378 ********* 1340.9437 ********* 1304.2639 ********* 1281.3181 ********* 1276.2469
  3.090 *********  862.5250 *********  873.0912 *********  867.7504 *********  844.3663 *********  840.7830 *********  837.4632
  3.100 *********  592.4656 *********  597.7010 *********  594.3173 *********  579.0743 *********  581.0561 *********  579.0570
  3.110 *********  432.4897 *********  434.4378 *********  431.6244 *********  419.9069 *********  423.7142 *********  422.6403
  3.120 -961.4656  293.2817 -953.1578  302.4194 -950.7574  300.2133 -938.9500  293.4243 -926.4467  299.7279 -926.0186  298.8723
  3.130 -834.7499  212.4527 -832.2232  220.4994 -830.2234  219.4102 -820.9713  216.6475 -813.0324  221.7642 -812.6950  221.0980
  3.140 -738.2729  165.1465 -737.6767  170.9854 -736.1123  170.2832 -728.9672  168.9821 -723.4034  173.0223 -723.0960  172.4747
  3.150 -661.7496  131.7976 -661.8773  136.1129 -660.5951  135.6046 -654.8748  135.0381 -650.8278  138.2768 -650.5419  137.8324
  3.160 -598.7979  107.0341 -599.2348  110.3063 -598.1491  109.9171 -593.4626  109.7826 -590.4574  112.3989 -590.1945  112.0377
  3.170 -545.8907   88.1326 -546.4642   90.6648 -545.5226   90.3554 -541.6235   90.4891 -539.3616   92.6113 -539.1214   92.3154
  3.180 -500.7341   73.3951 -501.3638   75.3852 -500.5313   75.1317 -497.2512   75.4348 -495.5339   77.1595 -495.3148   76.9149
  3.190 -461.7065   61.6933 -462.3530   63.2758 -461.6046   63.0628 -458.8226   63.4721 -457.5128   64.8738 -457.3126   64.6698
  3.200 -427.6101   52.2518 -428.2537   53.5213 -427.5707   53.3383 -425.1970   53.8119 -424.1975   54.9488 -424.0139   54.7775
  3.210 -397.5341   44.5240 -398.1657   45.5492 -397.5338   45.3886 -395.5004   45.8982 -394.7403   46.8163 -394.5713   46.6715
  3.220 -370.7717   38.1163 -371.3876   38.9480 -370.7954   38.8046 -369.0496   39.3302 -368.4764   40.0664 -368.3202   39.9436
  3.230 -346.7636   32.7401 -347.3637   33.4169 -346.8015   33.2867 -345.3023   33.8141 -344.8764   34.3979 -344.7313   34.2936
  3.240 -325.0604   28.1799 -325.6462   28.7314 -325.1061   28.6115 -323.8211   29.1302 -323.5118   29.5860 -323.3764   29.4972
  3.250 -305.2949   24.2724 -305.8692   24.7221 -305.3441   24.6102 -304.2474   25.1121 -304.0307   25.4599 -303.9040   25.3846
  3.260 -287.1618   20.8926 -287.7284   21.2592 -287.2115   21.1534 -286.2827   21.6321 -286.1393   21.8887 -286.0204   21.8251
  3.270 -270.4026   17.9433 -270.9658   18.2421 -270.4507   18.1413 -269.6736   18.5911 -269.5877   18.7708 -269.4759   18.7175
  3.280 -254.7933   15.3491 -255.3584   15.5926 -254.8386   15.4958 -254.2002   15.9115 -254.1585   16.0269 -254.0532   15.9829
  3.290 -240.1348   13.0510 -240.7079   13.2500 -240.1764   13.1565 -239.6667   13.5328 -239.6574   13.5954 -239.5586   13.5596
  3.300 -226.2439   11.0037 -226.8326   11.1675 -226.2814   11.0771 -225.8927   11.4082 -225.9050   11.4290 -225.8126   11.4006
  3.310 -212.9448    9.1737 -213.5585    9.3105 -212.9781    9.2233 -212.7047    9.5027 -212.7280    9.4931 -212.6428    9.4712
  3.320 -200.0605    7.5380 -200.7111    7.6556 -200.0900    7.5725 -199.9277    7.7924 -199.9509    7.7654 -199.8741    7.7487
  3.330 -187.3999    6.0829 -188.1039    6.1888 -187.4265    6.1113 -187.3725    6.2631 -187.3833    6.2360 -187.3170    6.2214
  3.340 -174.7304    4.8012 -175.5118    4.9024 -174.7558    4.8342 -174.8105    4.9091 -174.7978    4.9087 -174.7430    4.8887
  3.350 -161.7100    3.7446 -162.6050    3.8429 -161.7379    3.7964 -161.9140    3.7786 -161.8792    3.8381 -161.8247    3.8054
  3.360 -147.9966    3.1363 -149.0497    3.2267 -148.0355    3.2256 -148.3395    3.0709 -148.2748    3.2127 -148.2151    3.1812
  3.370 -133.1832    3.1453 -134.4639    3.2218 -133.2490    3.2968 -133.6653    2.9592 -133.5391    3.2471 -133.4909    3.2177
  3.380 -116.4803    4.1781 -118.1090    4.2125 -116.6037    4.4285 -117.1119    3.8528 -116.9061    4.4177 -116.8823    4.3735
  3.390  -96.7102    7.2466  -98.8897    7.1461  -96.9572    7.6497  -97.5113    6.7549  -97.2492    7.8405  -97.2595    7.7473
  3.400  -72.1533   14.7245  -75.2216   14.2103  -72.6732   15.3494  -73.1580   14.0303  -73.0256   16.1134  -73.0636   15.8941
  3.410  -40.9473   32.5667  -45.3626   30.7994  -42.0918   33.4434  -42.2429   31.6240  -43.0946   35.5779  -43.0515   35.0658
  3.420   -6.0309   75.5401  -11.5706   70.2187   -8.5780   76.3240   -7.9239   74.1704  -13.0563   80.4955  -12.3576   79.5695
  3.430   -0.7341  164.7674   -2.4712  152.9864   -5.5242  163.2249   -3.5421  161.6561  -18.6333  162.8803  -16.4483  163.0388
  3.440  -96.7150  241.4317  -86.8833  231.8929  -98.4086  234.3983  -97.2736  235.3161 -106.6553  219.7025 -106.2040  221.8406
  3.450 -197.3388  197.9915 -187.8169  199.1145 -193.4917  193.9688 -194.4984  193.1596 -189.7503  181.4048 -190.4167  182.3314
  3.460 -219.7241  133.3939 -215.4676  136.7139 -216.5187  132.7123 -216.4139  130.6405 -210.4114  126.0123 -210.9199  126.4394
  3.470 -212.8647   93.4610 -211.1014   95.9439 -210.9354   93.6398 -209.9862   91.7209 -205.5151   89.9825 -205.9305   90.2559
  3.480 -200.8446   70.4891 -200.0213   72.0021 -199.6548   70.7357 -198.4073   69.1182 -195.1860   68.3815 -195.5510   68.6166
  3.490 -189.3981   56.7960 -188.4581   58.8632 -188.5805   56.9243 -187.2509   55.4510 -184.7382   55.3236 -185.1661   55.2890
  3.500 -179.8430   48.4824 -179.4184   49.2598 -179.1767   48.4568 -177.7660   46.9265 -175.7859   46.8997 -176.1539   46.8790
  3.510 -173.1141   43.3725 -172.5872   43.8567 -172.4111   43.2083 -170.6713   41.4420 -168.9327   41.5603 -169.3173   41.4400
  3.520 -170.2507   37.8647 -169.5421   38.4206 -169.2986   37.7679 -166.6386   36.0425 -165.1217   36.5035 -165.3921   36.1773
  3.530 -165.7398   28.0754 -165.2474   28.8837 -164.8174   28.4192 -161.5033   27.8352 -160.5499   28.5052 -160.5339   28.2160
  3.540 -156.5477   21.1557 -156.3593   21.8717 -155.9795   21.6367 -153.1374   22.0165 -152.5739   22.5104 -152.5088   22.3874
  3.550 -148.1407   18.0101 -148.0818   18.5654 -147.7925   18.4242 -145.5258   19.1085 -145.1188   19.4440 -145.0822   19.3882
  3.560 -141.2944   16.2048 -141.2888   16.6361 -141.0605   16.5362 -139.1848   17.2808 -138.8617   17.5204 -138.8465   17.4886
  3.570 -135.4952   14.8831 -135.5143   15.2231 -135.3265   15.1467 -133.7111   15.8845 -133.4465   16.0625 -133.4434   16.0406
  3.580 -130.3876   13.8004 -130.4193   14.0717 -130.2599   14.0110 -128.8279   14.7250 -128.6089   14.8600 -128.6123   14.8429
  3.590 -125.7725   12.8726 -125.8109   13.0908 -125.6725   13.0413 -124.3773   13.7288 -124.1953   13.8319 -124.2022   13.8174
  3.600 -121.5323   12.0614 -121.5743   12.2378 -121.4520   12.1967 -120.2637   12.8589 -120.1122   12.9372 -120.1209   12.9244
  3.610 -117.5916   11.3448 -117.6356   11.4874 -117.5260   11.4528 -116.4241   12.0920 -116.2982   12.1505 -116.3077   12.1390
  3.620 -113.8987   10.7075 -113.9438   10.8226 -113.8444   10.7932 -112.8144   11.4113 -112.7101   11.4541 -112.7197   11.4434
  3.630 -110.4156   10.1381 -110.4613   10.2306 -110.3702   10.2053 -109.4014   10.8042 -109.3153   10.8342 -109.3247   10.8244
  3.640 -107.1136    9.6277 -107.1596    9.7015 -107.0753    9.6794 -106.1594   10.2608 -106.0887   10.2804 -106.0978   10.2713
  3.650 -103.9697    9.1690 -104.0159    9.2271 -103.9374    9.2077 -103.0678    9.7728 -103.0102    9.7843 -103.0187    9.7758
  3.660 -100.9654    8.7561 -101.0117    8.8012 -100.9379    8.7839 -100.1095    9.3339 -100.0630    9.3389 -100.0709    9.3311
  3.670  -98.0850    8.3842  -98.1315    8.4185  -98.0618    8.4029  -97.2702    8.9386  -97.2330    8.9388  -97.2402    8.9316
  3.680  -95.3155    8.0494  -95.3622    8.0746  -95.2959    8.0604  -94.5376    8.5826  -94.5081    8.5794  -94.5148    8.5727
  3.690  -92.6454    7.7483  -92.6924    7.7660  -92.6291    7.7530  -91.9009    8.2622  -91.8780    8.2570  -91.8840    8.2509
  3.700  -90.0648    7.4783  -90.1121    7.4900  -90.0514    7.4779  -89.3508    7.9747  -89.3332    7.9686  -89.3385    7.9630
  3.710  -87.5647    7.2374  -87.6126    7.2443  -87.5541    7.2328  -86.8789    7.7176  -86.8655    7.7119  -86.8702    7.7068
  3.720  -85.1374    7.0240  -85.1859    7.0271  -85.1293    7.0161  -84.4775    7.4892  -84.4674    7.4850  -84.4715    7.4804
  3.730  -82.7755    6.8367  -82.8248    6.8371  -82.7699    6.8265  -82.1397    7.2881  -82.1321    7.2865  -82.1357    7.2825
  3.740  -80.4724    6.6750  -80.5227    6.6736  -80.4692    6.6632  -79.8592    7.1135  -79.8533    7.1156  -79.8563    7.1120
  3.750  -78.2220    6.5383  -78.2735    6.5360  -78.2213    6.5257  -77.6301    6.9648  -77.6251    6.9717  -77.6276    6.9686
  3.760  -76.0186    6.4267  -76.0714    6.4244  -76.0203    6.4140  -75.4468    6.8419  -75.4421    6.8548  -75.4441    6.8522
  3.770  -73.8568    6.3407  -73.9111    6.3391  -73.8610    6.3285  -73.3040    6.7453  -73.2990    6.7653  -73.3006    6.7632
  3.780  -71.7314    6.2810  -71.7875    6.2811  -71.7383    6.2702  -71.1969    6.6758  -71.1910    6.7041  -71.1921    6.7024
  3.790  -69.6375    6.2492  -69.6957    6.2516  -69.6472    6.2403  -69.1206    6.6346  -69.1133    6.6725  -69.1140    6.6713
  3.800  -67.5706    6.2471  -67.6311    6.2526  -67.5833    6.2407  -67.0706    6.6236  -67.0614    6.6725  -67.0617    6.6717
  3.810  -65.5260    6.2772  -65.5892    6.2867  -65.5420    6.2741  -65.0426    6.6454  -65.0310    6.7067  -65.0310    6.7063
  3.820  -63.4996    6.3429  -63.5659    6.3572  -63.5192    6.3437  -63.0325    6.7031  -63.0181    6.7784  -63.0178    6.7785
  3.830  -61.4874    6.4482  -61.5572    6.4682  -61.5109    6.4537  -61.0363    6.8009  -61.0189    6.8920  -61.0182    6.8924
  3.840  -59.4857    6.5985  -59.5595    6.6250  -59.5137    6.6094  -59.0507    6.9440  -59.0299    7.0526  -59.0290    7.0534
  3.850  -57.4915    6.8000  -57.5699    6.8341  -57.5245    6.8170  -57.0727    7.1386  -57.0484    7.2670  -57.0472    7.2680
  3.860  -55.5024    7.0607  -55.5862    7.1034  -55.5411    7.0847  -55.1002    7.3927  -55.0722    7.5430  -55.0708    7.5443
  3.870  -53.5172    7.3901  -53.6071    7.4424  -53.5623    7.4218  -53.1319    7.7155  -53.1005    7.8904  -53.0990    7.8919
  3.880  -51.5363    7.7997  -51.6332    7.8627  -51.5888    7.8399  -51.1687    8.1187  -51.1342    8.3209  -51.1325    8.3225
  3.890  -49.5624    8.3031  -49.6675    8.3780  -49.6234    8.3526  -49.2135    8.6156  -49.1766    8.8481  -49.1747    8.8498
  3.900  -47.6018    8.9161  -47.7165    9.0041  -47.6727    8.9758  -47.2728    9.2218  -47.2345    9.4881  -47.2325    9.4897
  3.910  -45.6657    9.6566  -45.7915    9.7590  -45.7480    9.7272  -45.3580    9.9551  -45.3201   10.2587  -45.3180   10.2601
  3.920  -43.7719   10.5438  -43.9107   10.6618  -43.8676   10.6259  -43.4875   10.8340  -43.4522   11.1788  -43.4498   11.1799
  3.930  -41.9474   11.5965  -42.1015   11.7313  -42.0586   11.6904  -41.6884   11.8770  -41.6589   12.2667  -41.6563   12.2673
  3.940  -40.2305   12.8300  -40.4025   12.9828  -40.3598   12.9359  -39.9994   13.0988  -39.9799   13.5370  -39.9768   13.5369
  3.950  -38.6730   14.2513  -38.8657   14.4229  -38.8230   14.3686  -38.4721   14.5051  -38.4679   14.9947  -38.4641   14.9938
  3.960  -37.3393   15.8509  -37.5562   16.0421  -37.5128   15.9787  -37.1708   16.0856  -37.1883   16.6285  -37.1835   16.6265
  3.970  -36.3027   17.5939  -36.5476   17.8049  -36.5025   17.7303  -36.1682   17.8042  -36.2143   18.4002  -36.2081   18.3972
  3.980  -35.6345   19.4102  -35.9114   19.6410  -35.8625   19.5527  -35.5343   19.5899  -35.6158   20.2368  -35.6077   20.2328
  3.990  -35.3846   21.1907  -35.6981   21.4406  -35.6422   21.3363  -35.3174   21.3330  -35.4398   22.0261  -35.4294   22.0215
  4.000  -35.5588   22.7952  -35.9137   23.0627  -35.8461   22.9409  -35.5215   22.8936  -35.6876   23.6267  -35.6745   23.6218
  4.010  -36.0993   24.0761  -36.5004   24.3589  -36.4151   24.2196  -36.0872   24.1256  -36.2963   24.8918  -36.2801   24.8872
  4.020  -36.8827   24.9149  -37.3343   25.2095  -37.2253   25.0550  -36.8907   24.9118  -37.1381   25.7062  -37.1190   25.7025
  4.030  -37.7418   25.2550  -38.2476   25.5571  -38.1095   25.3922  -37.7651   25.1974  -38.0438   26.0183  -38.0219   26.0159
  4.040  -38.5047   25.1153  -39.0670   25.4207  -38.8966   25.2517  -38.5398   25.0026  -38.8416   25.8522  -38.8173   25.8517
  4.050  -39.0322   24.5784  -39.6525   24.8832  -39.4490   24.7167  -39.0770   24.4097  -39.3947   25.2945  -39.3683   25.2960
  4.060  -39.2386   23.7607  -39.9181   24.0620  -39.6828   23.9039  -39.2923   23.5347  -39.6208   24.4644  -39.5926   24.4680
  4.070  -39.0920   22.7825  -39.8321   23.0782  -39.5676   22.9331  -39.1548   22.4963  -39.4913   23.4828  -39.4615   23.4885
  4.080  -38.6006   21.7467  -39.4040   22.0356  -39.1132   21.9065  -38.6730   21.3962  -39.0173   22.4529  -38.9862   22.4607
  4.090  -37.7956   20.7312  -38.6666   21.0116  -38.3525   20.9003  -37.8780   20.3102  -38.2329   21.4517  -38.2005   21.4615
  4.100  -36.7172   19.7888  -37.6616   20.0581  -37.3268   19.9654  -36.8095   19.2892  -37.1804   20.5308  -37.1468   20.5426
  4.110  -35.4052   18.9522  -36.4306   19.2058  -36.0768   19.1317  -35.5061   18.3637  -35.9013   19.7213  -35.8666   19.7352
  4.120  -33.8942   18.2401  -35.0090   18.4697  -34.6374   18.4143  -34.0003   17.5499  -34.4317   19.0396  -34.3960   19.0557
  4.130  -32.2122   17.6622  -33.4246   17.8544  -33.0357   17.8174  -32.3168   16.8550  -32.8005   18.4923  -32.7640   18.5105
  4.140  -30.3810   17.2228  -31.6960   17.3572  -31.2900   17.3382  -30.4720   16.2807  -31.0291   18.0792  -30.9922   18.0996
  4.150  -28.4179   16.9224  -29.8320   16.9702  -29.4086   16.9689  -28.4742   15.8268  -29.1321   17.7950  -29.0951   17.8173
  4.160  -26.3380   16.7567  -27.8297   16.6821  -27.3881   16.6977  -26.3248   15.4926  -27.1164   17.6286  -27.0799   17.6526
  4.170  -24.1543   16.7098  -25.6701   16.4806  -25.2085   16.5121  -24.0179   15.2786  -24.9784   17.5605  -24.9432   17.5854
  4.180  -21.8684   16.7410  -23.3119   16.3600  -22.8274   16.4054  -21.5412   15.1874  -22.6933   17.5585  -22.6603   17.5830
  4.190  -19.4295   16.7775  -20.6892   16.3366  -20.1758   16.3936  -18.8749   15.2248  -20.1857   17.5840  -20.1569   17.6042
  4.200  -16.6710   16.7787  -17.7228   16.4707  -17.1703   16.5385  -15.9912   15.4012  -17.2954   17.6494  -17.2687   17.6551
  4.210  -13.3813   16.8893  -14.3548   16.8746  -13.7497   16.9569  -12.8531   15.7338  -13.8458   17.9297  -13.8026   17.9136
  4.220   -9.5363   17.3752  -10.5754   17.6862   -9.9024   17.7883   -9.4135   16.2483   -9.8309   18.7068   -9.7525   18.6870
  4.230   -5.2464   18.3662   -6.4245   19.0346   -5.6595   19.1742   -5.6124   16.9812   -5.3858   20.1526   -5.2786   20.1508
  4.240   -0.5364   19.8818   -1.9541   21.0015   -1.0862   21.2059   -1.3711   17.9841   -0.5946   22.3239   -0.4725   22.3454
  4.250    4.6777   21.9774    2.8387   23.6601    3.8223   23.9544    3.4137   19.3322    4.5574   25.2937    4.6878   25.3358
  4.260   10.5372   24.8015    8.0001   27.1472    9.1168   27.5660    8.8790   21.1370   10.1388   29.2307   10.2761   29.2913
  4.270   17.2155   28.6220   13.5793   31.7002   14.8488   32.2940   15.2082   23.5674   16.2210   34.4414   16.3663   34.5210
  4.280   24.9079   33.8787   19.5843   37.6885   21.0258   38.5323   22.6501   26.8868   22.8261   41.4179   22.9808   41.5194
  4.290   33.8026   41.2878   25.9152   45.6488   27.5396   46.8569   31.5442   31.5219   29.8368   50.9132   30.0015   51.0421
  4.300   43.9795   52.0316   32.2429   56.3172   34.0320   58.0645   42.3525   38.1950   36.8025   64.0446   36.9768   64.2092
  4.310   55.0939   68.0673   37.8002   70.6032   39.6574   73.1523   55.6775   48.1950   42.5118   82.3716   42.6927   82.5842
  4.320   65.4785   92.4681   41.1051   89.3887   42.7440   93.1011   72.1770   63.9606   44.0997  107.6862   44.2788  107.9653
  4.330   69.9884  128.9882   39.8457  113.0549   40.5776  118.3065   91.9656   90.3714   35.5612  140.5692   35.7141  140.9444
  4.340   57.1919  177.8769   31.2659  141.2992   29.7169  148.0808  111.6783  137.3485    7.4385  175.4415    7.4883  175.9399
  4.350   13.8259  226.8741   10.8732  174.5871    5.0788  181.3870  112.0191  221.0641  -43.7427  193.7942  -43.9295  194.3314
  4.360  -62.8883  252.4705  -36.6835  207.5327  -46.8424  209.8701   30.5082  329.8001  -97.4613  178.6390  -97.8500  178.9876
  4.370 -150.3209  219.4611 -111.6367  197.7681 -119.9080  193.1465 -142.8796  330.1486 -128.8990  142.7615 -129.2535  142.8833
  4.380 -184.7652  146.8596 -150.7089  143.6288 -153.6415  137.6264 -227.0818  212.4161 -138.4063  107.4887 -138.6464  107.5411
  4.390 -177.5428   93.2036 -152.2747   98.4642 -152.4858   94.0969 -220.4846  121.6248 -136.4176   80.4417 -136.5993   80.4969
  4.400 -160.9644   62.0657 -142.9672   70.1894 -142.3256   67.3438 -194.3023   73.1192 -130.0086   61.1645 -130.1681   61.2248
  4.410 -145.2000   43.8074 -132.3543   52.3837 -131.5483   50.5313 -170.1042   47.3468 -122.4492   47.5639 -122.5983   47.6233
  4.420 -131.9708   32.4853 -122.6516   40.5978 -121.8944   39.3592 -150.7923   32.7343 -115.0447   37.8509 -115.1865   37.9061
  4.430 -121.1130   25.0690 -114.2110   32.4253 -113.5573   31.5733 -135.6659   23.8666 -108.2481   30.7772 -108.3835   30.8274
  4.440 -112.1657   19.9804 -106.9453   26.5434 -106.3981   25.9399 -123.6874   18.1617 -102.1652   25.5150 -102.2946   25.5604
  4.450 -104.7080   16.3523 -100.6804   22.1784 -100.2270   21.7394 -114.0288   14.3104  -96.7681   21.5189  -96.8918   21.5600
  4.460  -98.4095   13.6817  -95.2453   18.8554  -94.8702   18.5284 -106.0941   11.6054  -91.9842   18.4254  -92.1027   18.4629
  4.470  -93.0209   11.6626  -90.4940   16.2705  -90.1831   16.0217  -99.4617    9.6418  -87.7323   15.9886  -87.8460   16.0231
  4.480  -88.3551   10.1009  -86.3073   14.2220  -86.0487   14.0290  -93.8307    8.1765  -83.9363   14.0384  -84.0456   14.0705
  4.490  -84.2708    8.8692  -82.5893   12.5722  -82.3731   12.4198  -88.9839    7.0571  -80.5292   12.4554  -80.6346   12.4855
  4.500  -80.6601    7.8812  -79.2630   11.2244  -79.0814   11.1021  -84.7608    6.1845  -77.4543   11.1539  -77.5562   11.1825
  4.510  -77.4396    7.0768  -76.2664   10.1095  -76.1132   10.0098  -81.0414    5.4922  -74.6639   10.0715  -74.7625   10.0988
  4.520  -74.5441    6.4135  -73.5496    9.1768  -73.4196    9.0943  -77.7342    4.9346  -72.1180    9.1620  -72.2137    9.1883
  4.530  -71.9221    5.8600  -71.0716    8.3886  -70.9609    8.3194  -74.7684    4.4793  -69.7834    8.3904  -69.8765    8.4159
  4.540  -69.5320    5.3934  -68.7991    7.7166  -68.7043    7.6577  -72.0884    4.1031  -67.6323    7.7303  -67.7232    7.7553
  4.550  -67.3406    4.9965  -66.7044    7.1390  -66.6229    7.0882  -69.6501    3.7890  -65.6414    7.1612  -65.7302    7.1858
  4.560  -65.3204    4.6560  -64.7647    6.6388  -64.6942    6.5944  -67.4180    3.5241  -63.7909    6.6671  -63.8778    6.6914
  4.570  -63.4488    4.3618  -62.9606    6.2028  -62.8993    6.1635  -65.3632    3.2989  -62.0643    6.2354  -62.1495    6.2596
  4.580  -61.7072    4.1059  -61.2760    5.8204  -61.2224    5.7852  -63.4619    3.1060  -60.4472    5.8560  -60.5310    5.8801
  4.590  -60.0798    3.8819  -59.6971    5.4832  -59.6499    5.4512  -61.6945    2.9396  -58.9275    5.5208  -59.0101    5.5449
  4.600  -58.5533    3.6848  -58.2121    5.1843  -58.1704    5.1550  -60.0446    2.7953  -57.4949    5.2232  -57.5763    5.2475
  4.610  -57.1165    3.5106  -56.8111    4.9182  -56.7738    4.8910  -58.4983    2.6693  -56.1402    4.9577  -56.2206    4.9823
  4.620  -55.7596    3.3559  -55.4853    4.6804  -55.4517    4.6548  -57.0439    2.5589  -54.8556    4.7201  -54.9352    4.7449
  4.630  -54.4744    3.2179  -54.2272    4.4669  -54.1966    4.4427  -55.6714    2.4617  -53.6343    4.5066  -53.7132    4.5317
  4.640  -53.2537    3.0946  -53.0302    4.2748  -53.0020    4.2516  -54.3722    2.3758  -52.4704    4.3141  -52.5487    4.3396
  4.650  -52.0910    2.9839  -51.8885    4.1012  -51.8624    4.0788  -53.1388    2.2998  -51.3585    4.1400  -51.4363    4.1660
  4.660  -50.9811    2.8845  -50.7972    3.9441  -50.7725    3.9223  -51.9647    2.2323  -50.2939    3.9822  -50.3714    4.0087
  4.670  -49.9190    2.7948  -49.7516    3.8014  -49.7281    3.7801  -50.8443    2.1722  -49.2727    3.8387  -49.3499    3.8658
  4.680  -48.9005    2.7139  -48.7479    3.6717  -48.7252    3.6507  -49.7726    2.1187  -48.2910    3.7082  -48.3681    3.7359
  4.690  -47.9218    2.6408  -47.7825    3.5535  -47.7603    3.5327  -48.7452    2.0711  -47.3456    3.5891  -47.4226    3.6174
  4.700  -46.9796    2.5746  -46.8522    3.4457  -46.8303    3.4250  -47.7583    2.0286  -46.4335    3.4803  -46.5106    3.5093
  4.710  -46.0707    2.5149  -45.9543    3.3472  -45.9323    3.3265  -46.8084    1.9909  -45.5522    3.3808  -45.6294    3.4106
  4.720  -45.1926    2.4608  -45.0860    3.2571  -45.0638    3.2364  -45.8924    1.9574  -44.6991    3.2898  -44.7766    3.3204
  4.730  -44.3427    2.4120  -44.2452    3.1748  -44.2225    3.1540  -45.0075    1.9278  -43.8722    3.2064  -43.9500    3.2379
  4.740  -43.5189    2.3680  -43.4297    3.0996  -43.4064    3.0785  -44.1512    1.9018  -43.0694    3.1301  -43.1476    3.1624
  4.750  -42.7192    2.3284  -42.6376    3.0308  -42.6135    3.0095  -43.3213    1.8790  -42.2889    3.0603  -42.3676    3.0935
  4.760  -41.9417    2.2930  -41.8672    2.9679  -41.8421    2.9463  -42.5157    1.8593  -41.5291    2.9964  -41.6084    3.0307
  4.770  -41.1847    2.2614  -41.1168    2.9107  -41.0906    2.8887  -41.7325    1.8424  -40.7884    2.9381  -40.8684    2.9734
  4.780  -40.4467    2.2333  -40.3850    2.8585  -40.3575    2.8362  -40.9701    1.8282  -40.0655    2.8849  -40.1463    2.9213
  4.790  -39.7264    2.2087  -39.6705    2.8112  -39.6414    2.7885  -40.2268    1.8166  -39.3591    2.8366  -39.4407    2.8741
  4.800  -39.0223    2.1874  -38.9719    2.7685  -38.9412    2.7452  -39.5012    1.8074  -38.6679    2.7928  -38.7504    2.8315
  4.810  -38.3333    2.1691  -38.2880    2.7300  -38.2556    2.7063  -38.7920    1.8006  -37.9908    2.7532  -38.0744    2.7932
  4.820  -37.6583    2.1538  -37.6179    2.6956  -37.5836    2.6713  -38.0979    1.7961  -37.3268    2.7178  -37.4116    2.7591
  4.830  -36.9962    2.1413  -36.9604    2.6651  -36.9241    2.6402  -37.4178    1.7938  -36.6748    2.6862  -36.7609    2.7289
  4.840  -36.3459    2.1316  -36.3147    2.6383  -36.2761    2.6129  -36.7506    1.7937  -36.0340    2.6584  -36.1215    2.7025
  4.850  -35.7066    2.1247  -35.6797    2.6151  -35.6388    2.5890  -36.0952    1.7957  -35.4035    2.6342  -35.4925    2.6798
  4.860  -35.0774    2.1205  -35.0547    2.5955  -35.0113    2.5687  -35.4508    1.7999  -34.7824    2.6134  -34.8730    2.6606
  4.870  -34.4575    2.1189  -34.4388    2.5792  -34.3928    2.5518  -34.8164    1.8062  -34.1700    2.5961  -34.2623    2.6450
  4.880  -33.8460    2.1200  -33.8313    2.5663  -33.7824    2.5381  -34.1911    1.8147  -33.5654    2.5821  -33.6596    2.6327
  4.890  -33.2421    2.1238  -33.2313    2.5568  -33.1795    2.5278  -33.5741    1.8255  -32.9680    2.5713  -33.0642    2.6238
  4.900  -32.6453    2.1303  -32.6383    2.5505  -32.5832    2.5207  -32.9647    1.8384  -32.3770    2.5639  -32.4754    2.6183
  4.910  -32.0546    2.1395  -32.0514    2.5475  -31.9930    2.5169  -32.3621    1.8537  -31.7918    2.5597  -31.8925    2.6162
  4.920  -31.4694    2.1515  -31.4700    2.5479  -31.4080    2.5163  -31.7654    1.8713  -31.2117    2.5588  -31.3148    2.6174
  4.930  -30.8892    2.1664  -30.8935    2.5515  -30.8277    2.5190  -31.1741    1.8914  -30.6359    2.5612  -30.7418    2.6221
  4.940  -30.3131    2.1843  -30.3211    2.5586  -30.2514    2.5252  -30.5874    1.9141  -30.0640    2.5669  -30.1727    2.6302
  4.950  -29.7405    2.2052  -29.7523    2.5692  -29.6784    2.5347  -30.0046    1.9395  -29.4952    2.5761  -29.6069    2.6419
  4.960  -29.1709    2.2294  -29.1865    2.5834  -29.1081    2.5478  -29.4251    1.9676  -28.9289    2.5888  -29.0439    2.6573
  4.970  -28.6035    2.2569  -28.6229    2.6013  -28.5399    2.5646  -28.8481    1.9988  -28.3644    2.6051  -28.4829    2.6765
  4.980  -28.0377    2.2880  -28.0611    2.6230  -27.9730    2.5852  -28.2731    2.0330  -27.8012    2.6252  -27.9234    2.6996
  4.990  -27.4730    2.3229  -27.5002    2.6489  -27.4069    2.6098  -27.6992    2.0707  -27.2385    2.6492  -27.3648    2.7268
  5.000  -26.9085    2.3617  -26.9398    2.6790  -26.8409    2.6386  -27.1259    2.1118  -26.6758    2.6774  -26.8064    2.7583
  5.010  -26.3437    2.4049  -26.3792    2.7136  -26.2743    2.6718  -26.5524    2.1569  -26.1124    2.7099  -26.2476    2.7945
  5.020  -25.7780    2.4526  -25.8177    2.7530  -25.7064    2.7098  -25.9780    2.2060  -25.5476    2.7470  -25.6878    2.8355
  5.030  -25.2105    2.5053  -25.2546    2.7975  -25.1366    2.7528  -25.4021    2.2596  -24.9806    2.7891  -25.1262    2.8817
  5.040  -24.6408    2.5633  -24.6893    2.8476  -24.5641    2.8012  -24.8239    2.3180  -24.4109    2.8364  -24.5622    2.9334
  5.050  -24.0679    2.6271  -24.1211    2.9036  -23.9883    2.8555  -24.2425    2.3817  -23.8375    2.8895  -23.9951    2.9911
  5.060  -23.4913    2.6973  -23.5493    2.9661  -23.4083    2.9162  -23.6574    2.4510  -23.2599    2.9486  -23.4242    3.0553
  5.070  -22.9101    2.7744  -22.9731    3.0356  -22.8234    2.9838  -23.0675    2.5267  -22.6771    3.0144  -22.8487    3.1266
  5.080  -22.3236    2.8592  -22.3919    3.1128  -22.2328    3.0589  -22.4722    2.6092  -22.0883    3.0875  -22.2678    3.2056
  5.090  -21.7311    2.9524  -21.8047    3.1985  -21.6356    3.1424  -21.8705    2.6994  -21.4927    3.1685  -21.6808    3.2930
  5.100  -21.1317    3.0550  -21.2109    3.2937  -21.0310    3.2351  -21.2615    2.7979  -20.8894    3.2583  -21.0869    3.3897
  5.110  -20.5246    3.1681  -20.6096    3.3992  -20.4182    3.3380  -20.6444    2.9059  -20.2774    3.3578  -20.4852    3.4968
  5.120  -19.9091    3.2929  -20.0002    3.5164  -19.7962    3.4524  -20.0181    3.0243  -19.6559    3.4681  -19.8748    3.6154
  5.130  -19.2845    3.4309  -19.3818    3.6468  -19.1643    3.5795  -19.3816    3.1545  -19.0237    3.5904  -19.2550    3.7468
  5.140  -18.6499    3.5837  -18.7537    3.7918  -18.5216    3.7211  -18.7342    3.2980  -18.3799    3.7262  -18.6248    3.8928
  5.150  -18.0049    3.7533  -18.1154    3.9536  -17.8674    3.8789  -18.0747    3.4564  -17.7237    3.8773  -17.9836    4.0550
  5.160  -17.3491    3.9419  -17.4664    4.1343  -17.2011    4.0552  -17.4024    3.6317  -17.0540    4.0456  -17.3307    4.2358
  5.170  -16.6823    4.1524  -16.8067    4.3367  -16.5224    4.2524  -16.7165    3.8264  -16.3700    4.2334  -16.6656    4.4377
  5.180  -16.0047    4.3875  -16.1363    4.5637  -15.8312    4.4735  -16.0165    4.0430  -15.6713    4.4434  -15.9882    4.6637
  5.190  -15.3174    4.6509  -15.4562    4.8190  -15.1280    4.7218  -15.3022    4.2848  -14.9575    4.6788  -15.2986    4.9172
  5.200  -14.6220    4.9463  -14.7681    5.1063  -14.4142    5.0008  -14.5739    4.5550  -14.2288    4.9430  -14.5978    5.2023
  5.210  -13.9215    5.2776  -14.0749    5.4299  -13.6920    5.3143  -13.8326    4.8576  -13.4861    5.2397  -13.8877    5.5235
  5.220  -13.2206    5.6487  -13.3813    5.7940  -12.9652    5.6661  -13.0805    5.1966  -12.7314    5.5731  -13.1715    5.8854
  5.230  -12.5260    6.0627  -12.6940    6.2023  -12.2395    6.0589  -12.3207    5.5756  -11.9675    5.9470  -12.4544    6.2929
  5.240  -11.8468    6.5210  -12.0227    6.6566  -11.5225    6.4941  -11.5582    5.9977  -11.1991    6.3644  -11.7439    6.7501
  5.250  -11.1947    7.0216  -11.3797    7.1559  -10.8236    6.9695  -10.7991    6.4642  -10.4320    6.8268  -11.0502    7.2594
  5.260  -10.5831    7.5570  -10.7795    7.6934  -10.1531    7.4778  -10.0506    6.9736   -9.6726    7.3330  -10.3866    7.8198
  5.270  -10.0248    8.1119  -10.2369    8.2547   -9.5188    8.0045   -9.3188    7.5206   -8.9262    7.8782   -9.7680    8.4254
  5.280   -9.5279    8.6616   -9.7627    8.8153   -8.9213    8.5279   -8.6064    8.0965   -8.1944    8.4548   -9.2106    9.0635
  5.290   -9.0901    9.1724   -9.3586    9.3413   -8.3473    9.0225   -7.9105    8.6920   -7.4720    9.0550   -8.7298    9.7134
  5.300   -8.6921    9.6056   -9.0106    9.7917   -7.7650    9.4692   -7.2228    9.3019   -6.7484    9.6783   -8.3404   10.3429
  5.310   -8.2922    9.9239   -8.6834   10.1234   -7.1289    9.8703   -6.5371    9.9279   -6.0165   10.3366   -8.0529   10.8954
  5.320   -7.8192   10.1030   -8.3107   10.3000   -6.3992   10.2617   -5.8566   10.5708   -5.2903   11.0459   -7.8418   11.2737
  5.330   -7.1688   10.1613   -7.7864   10.3216   -5.5762   10.6998   -5.1870   11.2135   -4.6052   11.7937   -7.5771   11.3741
  5.340   -6.2521   10.2053   -7.0025   10.2730   -4.7081   11.2061   -4.5101   11.8225   -3.9719   12.5177   -7.0282   11.2245
  5.350   -5.0936   10.3779   -5.9434   10.2973   -3.8199   11.7314   -3.7715   12.3787   -3.3277   13.1542   -6.0486   11.0384
  5.360   -3.7885   10.7242   -4.6805   10.4782   -2.8524   12.2277   -2.9036   12.9026   -2.5673   13.7060   -4.6841   11.0396
  5.370   -2.3728   11.2182   -3.2672   10.8252   -1.7154   12.7227   -1.8538   13.4502   -1.6088   14.2424   -3.0625   11.3351
  5.380   -0.8274   11.8582   -1.7140   11.3431   -0.3571   13.2990   -0.5968   14.0960   -0.4176   14.8588   -1.2886   11.9452
  5.390    0.8673   12.6801   -0.0207   12.0560    1.2277   14.0460    0.8652   14.9174    1.0014   15.6476    0.5771   12.8620
  5.400    2.7128   13.7343    1.8070   12.9981    3.0177   15.0391    2.5100   15.9839    2.6194   16.6867    2.5060   14.0797
  5.410    4.6981   15.0726    3.7594   14.2061    4.9842   16.3394    4.3064   17.3554    4.3987   18.0396    4.4865   15.6075
  5.420    6.8082   16.7486    5.8264   15.7208    7.1000   18.0048    6.2210   19.0881    6.3003   19.7638    6.5120   17.4734
  5.430    9.0248   18.8243    7.9978   17.5926    9.3392   20.1006    8.2180   21.2428    8.2837   21.9199    8.5715   19.7245
  5.440   11.3228   21.3770   10.2592   19.8874   11.6697   22.7087   10.2538   23.8923   10.3008   24.5796   10.6417   22.4275
  5.450   13.6610   24.5055   12.5848   22.6911   14.0434   25.9346   12.2668   27.1254   12.2858   27.8298   12.6784   25.6684
  5.460   15.9688   28.3337   14.9272   26.1143   16.3792   29.9108   14.1635   31.0481   14.1404   31.7729   14.6052   29.5513
  5.470   18.1263   33.0111   17.2014   30.2948   18.5411   34.7971   15.8000   35.7792   15.7163   36.5212   16.2977   34.1949
  5.480   19.9355   38.7058   19.2619   35.3962   20.3051   40.7710   16.9585   41.4368   16.7931   42.1822   17.5627   39.7219
  5.490   21.0816   45.5817   20.8685   41.5974   21.3161   47.9990   17.3195   48.1091   17.0546   48.8283   18.1113   46.2352
  5.500   21.0867   53.7434   21.6402   49.0591   21.0398   56.5696   16.4382   55.7982   16.0716   56.4430   17.5307   53.7719
  5.510   19.2768   63.1264   21.0046   57.8475   18.7354   66.3647   13.7427   64.3260   13.3078   64.8385   15.2690   62.2172
  5.520   14.8152   73.3135   18.1755   67.7846   13.5146   76.8552    8.5967   73.2011    8.1786   73.5445   10.6702   71.1694
  5.530    6.9054   83.3137   12.2456   78.2166    4.5987   86.8773    0.4888   81.4881    0.2077   81.7013    3.1337   79.7773
  5.540   -4.7466   91.4821    2.5235   87.7967   -8.1544   94.6084  -10.6137   87.8135  -10.6839   88.0448   -7.5274   86.6810
  5.550  -19.3550   95.8988  -10.8551   94.5760  -23.6689   98.0722  -23.8819   90.7122  -23.8191   91.1523  -20.6278   90.3086
  5.560  -34.9126   95.2904  -26.4257   96.7239  -39.6439   96.1683  -37.6038   89.3227  -37.6345   90.0415  -34.4872   89.6144
  5.570  -48.9537   89.8498  -41.7064   93.6053  -53.5139   89.4298  -49.8095   83.9447  -50.1412   84.8069  -47.0376   84.7556
  5.580  -59.7273   81.1088  -54.3792   86.2158  -63.6746   79.6813  -59.1439   75.8853  -59.8135   76.6583  -56.7868   77.0062
  5.590  -66.7533   71.0014  -63.3094   76.4916  -69.8975   68.9618  -65.2595   66.7336  -66.1496   67.2492  -63.2919   67.9981
  5.600  -70.5172   61.0347  -68.6015   66.2619  -72.8688   58.7255  -68.5710   57.7285  -69.5212   57.9397  -66.9273   59.0305
  5.610  -71.8760   52.0381  -71.0253   56.7007  -73.5455   49.6925  -69.7933   49.5642  -70.6787   49.5092  -68.4011   50.8464
  5.620  -71.6486   44.3076  -71.4692   48.3366  -72.7708   42.0599  -69.6161   42.4982  -70.3663   42.2478  -68.4109   43.7372
  5.630  -70.4621   37.8353  -70.6712   41.2816  -71.1593   35.7524  -68.5756   36.5330  -69.1627   36.1581  -67.5062   37.7273
  5.640  -68.7448   32.4805  -69.1604   35.4415  -69.1156   30.5908  -67.0448   31.5555  -67.4660   31.1146  -66.0747   32.7164
  5.650  -66.7704   28.0659  -67.2869   30.6462  -66.8913   26.3783  -65.2663   27.4163  -65.5319   26.9554  -64.3741   28.5625
  5.660  -64.7062   24.4214  -65.2719   26.7140  -64.6370   22.9366  -63.3913   23.9694  -63.5180   23.5240  -62.5702   25.1205
  5.670  -62.6506   21.4000  -63.2501   23.4773  -62.4411   20.1154  -61.5094   21.0861  -61.5187   20.6840  -60.7662   22.2576
  5.680  -60.6588   18.8808  -61.2973   20.7899  -60.3537   17.7902  -59.6714   18.6601  -59.5887   18.3215  -59.0222   19.8569
  5.690  -58.7596   16.7666  -59.4489   18.5302  -58.4001   15.8583  -57.9038   16.6062  -57.7575   16.3426  -57.3669   17.8193
  5.700  -56.9658   14.9800  -57.7122   16.6022  -56.5879   14.2351  -56.2193   14.8575  -56.0375   14.6704  -55.8062   16.0658
  5.710  -55.2808   13.4598  -56.0794   14.9364  -54.9116   12.8535  -54.6232   13.3614  -54.4297   13.2434  -54.3333   14.5384
  5.720  -53.7025   12.1578  -54.5385   13.4857  -53.3589   11.6628  -53.1170   12.0757  -52.9281   12.0140  -52.9377   13.1977
  5.730  -52.2259   11.0353  -53.0803   12.2177  -51.9156   10.6267  -51.6996   10.9658  -51.5243   10.9465  -51.6113   12.0172
  5.740  -50.8449   10.0619  -51.6992   11.1081  -50.5689    9.7188  -50.3681   10.0028  -50.2097   10.0136  -50.3495   10.9767
  5.750  -49.5526    9.2129  -50.3920   10.1361  -49.3082    8.9195  -49.1182    9.1631  -48.9766    9.1942  -49.1501   10.0591
  5.760  -48.3421    8.4684  -49.1564    9.2833  -48.1255    8.2133  -47.9448    8.4268  -47.8181    8.4713  -48.0114    9.2491
  5.770  -47.2068    7.8124  -47.9897    8.5334  -47.0138    7.5873  -46.8424    7.7779  -46.7283    7.8312  -46.9318    8.5325
  5.780  -46.1404    7.2315  -46.8885    7.8717  -45.9674    7.0307  -45.8055    7.2031  -45.7016    7.2621  -45.9090    7.8969
  5.790  -45.1373    6.7148  -45.8494    7.2859  -44.9810    6.5342  -44.8288    6.6917  -44.7332    6.7543  -44.9402    7.3314
  5.800  -44.1922    6.2534  -44.8683    6.7652  -44.0498    6.0897  -43.9076    6.2346  -43.8184    6.2996  -44.0224    6.8263
  5.810  -43.3001    5.8397  -43.9412    6.3006  -43.1696    5.6907  -43.0372    5.8245  -42.9532    5.8911  -43.1525    6.3738
  5.820  -42.4568    5.4673  -43.0644    5.8844  -42.3364    5.3312  -42.2135    5.4551  -42.1337    5.5227  -42.3272    5.9668
  5.830  -41.6582    5.1311  -42.2341    5.5103  -41.5466    5.0063  -41.4327    5.1212  -41.3563    5.1895  -41.5436    5.5996
  5.840  -40.9008    4.8263  -41.4468    5.1727  -40.7968    4.7117  -40.6916    4.8184  -40.6178    4.8872  -40.7986    5.2671
  5.850  -40.1813    4.5494  -40.6993    4.8671  -40.0839    4.4440  -39.9869    4.5429  -39.9154    4.6121  -40.0896    4.9651
  5.860  -39.4968    4.2969  -39.9885    4.5895  -39.4053    4.1998  -39.3159    4.2916  -39.2462    4.3611  -39.4140    4.6900
  5.870  -38.8445    4.0660  -39.3119    4.3366  -38.7583    3.9766  -38.6761    4.0617  -38.6079    4.1313  -38.7693    4.4387
  5.880  -38.2222    3.8544  -38.6667    4.1056  -38.1407    3.7720  -38.0651    3.8507  -37.9981    3.9205  -38.1536    4.2085
  5.890  -37.6275    3.6600  -38.0509    3.8939  -37.5503    3.5840  -37.4809    3.6568  -37.4150    3.7267  -37.5646    3.9971
  5.900  -37.0586    3.4809  -37.4621    3.6994  -36.9852    3.4108  -36.9215    3.4780  -36.8567    3.5480  -37.0006    3.8024
  5.910  -36.5136    3.3156  -36.8986    3.5203  -36.4438    3.2510  -36.3853    3.3129  -36.3213    3.3830  -36.4599    3.6228
  5.920  -35.9908    3.1626  -36.3587    3.3551  -35.9243    3.1031  -35.8707    3.1600  -35.8075    3.2301  -35.9410    3.4566
  5.930  -35.4888    3.0208  -35.8406    3.2022  -35.4253    2.9659  -35.3762    3.0182  -35.3137    3.0883  -35.4424    3.3026
  5.940  -35.0063    2.8891  -35.3429    3.0604  -34.9455    2.8386  -34.9006    2.8864  -34.8387    2.9566  -34.9628    3.1596
  5.950  -34.5418    2.7665  -34.8644    2.9288  -34.4837    2.7200  -34.4426    2.7637  -34.3814    2.8338  -34.5011    3.0266
  5.960  -34.0944    2.6522  -34.4038    2.8063  -34.0387    2.6095  -34.0012    2.6493  -33.9405    2.7194  -34.0561    2.9026
  5.970  -33.6630    2.5455  -33.9599    2.6921  -33.6095    2.5063  -33.5753    2.5424  -33.5151    2.6124  -33.6267    2.7867
  5.980  -33.2465    2.4457  -33.5318    2.5854  -33.1951    2.4097  -33.1639    2.4423  -33.1043    2.5123  -33.2122    2.6784
  5.990  -32.8441    2.3522  -33.1185    2.4856  -32.7947    2.3192  -32.7664    2.3486  -32.7073    2.4184  -32.8116    2.5770
  6.000  -32.4551    2.2644  -32.7192    2.3921  -32.4075    2.2344  -32.3818    2.2606  -32.3232    2.3303  -32.4241    2.4818
  6.010  -32.0785    2.1820  -32.3329    2.3044  -32.0327    2.1546  -32.0094    2.1779  -31.9513    2.2475  -32.0489    2.3923
  6.020  -31.7138    2.1044  -31.9590    2.2219  -31.6696    2.0795  -31.6485    2.1001  -31.5909    2.1695  -31.6855    2.3082
  6.030  -31.3603    2.0313  -31.5969    2.1443  -31.3176    2.0088  -31.2986    2.0267  -31.2415    2.0960  -31.3332    2.2289
  6.040  -31.0173    1.9624  -31.2458    2.0712  -30.9762    1.9420  -30.9591    1.9575  -30.9024    2.0267  -30.9913    2.1541
  6.050  -30.6844    1.8973  -30.9051    2.0021  -30.6446    1.8789  -30.6294    1.8921  -30.5731    1.9611  -30.6593    2.0834
  6.060  -30.3610    1.8357  -30.5744    1.9370  -30.3226    1.8193  -30.3089    1.8303  -30.2531    1.8991  -30.3368    2.0166
  6.070  -30.0466    1.7774  -30.2531    1.8753  -30.0094    1.7628  -29.9974    1.7718  -29.9420    1.8403  -30.0233    1.9533
  6.080  -29.7408    1.7222  -29.9407    1.8169  -29.7049    1.7093  -29.6942    1.7163  -29.6393    1.7846  -29.7183    1.8934
  6.090  -29.4432    1.6697  -29.6369    1.7615  -29.4084    1.6585  -29.3991    1.6636  -29.3446    1.7317  -29.4214    1.8365
  6.100  -29.1533    1.6200  -29.3411    1.7090  -29.1196    1.6102  -29.1116    1.6136  -29.0575    1.6815  -29.1322    1.7824
  6.110  -28.8709    1.5727  -29.0530    1.6591  -28.8382    1.5643  -28.8314    1.5661  -28.7777    1.6337  -28.8504    1.7311
  6.120  -28.5956    1.5276  -28.7723    1.6116  -28.5639    1.5207  -28.5581    1.5209  -28.5049    1.5882  -28.5756    1.6822
  6.130  -28.3270    1.4848  -28.4986    1.5665  -28.2962    1.4790  -28.2915    1.4778  -28.2387    1.5449  -28.3075    1.6356
  6.140  -28.0648    1.4439  -28.2316    1.5234  -28.0350    1.4394  -28.0312    1.4367  -27.9788    1.5035  -28.0459    1.5912
  6.150  -27.8089    1.4049  -27.9710    1.4824  -27.7799    1.4015  -27.7770    1.3975  -27.7250    1.4640  -27.7904    1.5488
  6.160  -27.5588    1.3677  -27.7165    1.4432  -27.5307    1.3653  -27.5286    1.3601  -27.4771    1.4263  -27.5408    1.5084
  6.170  -27.3145    1.3321  -27.4679    1.4058  -27.2871    1.3307  -27.2858    1.3243  -27.2346    1.3903  -27.2968    1.4697
  6.180  -27.0755    1.2981  -27.2249    1.3700  -27.0489    1.2977  -27.0483    1.2901  -26.9976    1.3558  -27.0582    1.4327
  6.190  -26.8418    1.2655  -26.9872    1.3358  -26.8159    1.2660  -26.8160    1.2574  -26.7657    1.3228  -26.8249    1.3973
  6.200  -26.6130    1.2343  -26.7548    1.3030  -26.5879    1.2356  -26.5886    1.2261  -26.5387    1.2911  -26.5965    1.3634
  6.210  -26.3891    1.2044  -26.5273    1.2716  -26.3647    1.2065  -26.3659    1.1960  -26.3164    1.2607  -26.3729    1.3309
  6.220  -26.1698    1.1757  -26.3046    1.2415  -26.1460    1.1786  -26.1478    1.1672  -26.0987    1.2316  -26.1539    1.2997
  6.230  -25.9550    1.1482  -26.0865    1.2127  -25.9318    1.1518  -25.9341    1.1395  -25.8854    1.2036  -25.9393    1.2697
  6.240  -25.7444    1.1218  -25.8727    1.1849  -25.7218    1.1260  -25.7246    1.1130  -25.6763    1.1768  -25.7290    1.2409
  6.250  -25.5379    1.0964  -25.6633    1.1583  -25.5159    1.1013  -25.5192    1.0875  -25.4712    1.1509  -25.5228    1.2133
  6.260  -25.3355    1.0720  -25.4579    1.1327  -25.3140    1.0774  -25.3177    1.0629  -25.2701    1.1260  -25.3206    1.1867
  6.270  -25.1368    1.0484  -25.2565    1.1080  -25.1159    1.0545  -25.1200    1.0393  -25.0728    1.1021  -25.1222    1.1611
  6.280  -24.9419    1.0258  -25.0589    1.0843  -24.9215    1.0324  -24.9259    1.0166  -24.8791    1.0790  -24.9275    1.1364
  6.290  -24.7505    1.0040  -24.8649    1.0614  -24.7306    1.0111  -24.7354    0.9947  -24.6890    1.0568  -24.7363    1.1127
  6.300  -24.5626    0.9830  -24.6745    1.0394  -24.5432    0.9906  -24.5483    0.9736  -24.5022    1.0354  -24.5486    1.0898
  6.310  -24.3780    0.9627  -24.4875    1.0182  -24.3591    0.9708  -24.3645    0.9532  -24.3188    1.0147  -24.3642    1.0677
  6.320  -24.1967    0.9432  -24.3039    0.9977  -24.1782    0.9516  -24.1839    0.9336  -24.1385    0.9947  -24.1831    1.0464
  6.330  -24.0185    0.9243  -24.1234    0.9779  -24.0004    0.9332  -24.0064    0.9146  -23.9614    0.9755  -24.0050    1.0258
  6.340  -23.8433    0.9061  -23.9461    0.9588  -23.8256    0.9153  -23.8318    0.8963  -23.7872    0.9568  -23.8300    1.0059
  6.350  -23.6710    0.8885  -23.7717    0.9404  -23.6538    0.8981  -23.6602    0.8786  -23.6159    0.9388  -23.6579    0.9867
  6.360  -23.5016    0.8715  -23.6003    0.9225  -23.4847    0.8814  -23.4914    0.8616  -23.4474    0.9214  -23.4886    0.9681
  6.370  -23.3349    0.8550  -23.4317    0.9053  -23.3184    0.8653  -23.3253    0.8450  -23.2817    0.9045  -23.3221    0.9501
  6.380  -23.1709    0.8391  -23.2658    0.8886  -23.1548    0.8496  -23.1618    0.8290  -23.1185    0.8882  -23.1582    0.9327
  6.390  -23.0094    0.8236  -23.1026    0.8724  -22.9937    0.8345  -23.0009    0.8135  -22.9580    0.8724  -22.9969    0.9158
  6.400  -22.8505    0.8087  -22.9419    0.8568  -22.8351    0.8198  -22.8425    0.7986  -22.7999    0.8571  -22.8382    0.8995
  6.410  -22.6940    0.7942  -22.7837    0.8416  -22.6790    0.8056  -22.6865    0.7840  -22.6442    0.8422  -22.6818    0.8837
  6.420  -22.5399    0.7802  -22.6280    0.8269  -22.5252    0.7918  -22.5329    0.7700  -22.4909    0.8278  -22.5278    0.8683
  6.430  -22.3881    0.7666  -22.4746    0.8126  -22.3737    0.7784  -22.3815    0.7563  -22.3399    0.8138  -22.3762    0.8535
  6.440  -22.2386    0.7534  -22.3235    0.7988  -22.2245    0.7654  -22.2324    0.7431  -22.1911    0.8003  -22.2267    0.8390
  6.450  -22.0912    0.7406  -22.1746    0.7854  -22.0774    0.7528  -22.0854    0.7302  -22.0444    0.7871  -22.0795    0.8250
  6.460  -21.9459    0.7281  -22.0279    0.7724  -21.9324    0.7406  -21.9405    0.7178  -21.8999    0.7743  -21.9343    0.8114
  6.470  -21.8027    0.7161  -21.8833    0.7597  -21.7895    0.7287  -21.7977    0.7056  -21.7574    0.7619  -21.7913    0.7982
  6.480  -21.6615    0.7043  -21.7408    0.7474  -21.6486    0.7171  -21.6569    0.6939  -21.6169    0.7498  -21.6502    0.7853
  6.490  -21.5223    0.6929  -21.6003    0.7355  -21.5096    0.7059  -21.5180    0.6825  -21.4783    0.7381  -21.5111    0.7729
  6.500  -21.3850    0.6818  -21.4617    0.7238  -21.3725    0.6950  -21.3810    0.6714  -21.3416    0.7266  -21.3738    0.7607
  6.510  -21.2495    0.6711  -21.3250    0.7125  -21.2373    0.6843  -21.2459    0.6606  -21.2067    0.7155  -21.2385    0.7489
  6.520  -21.1159    0.6606  -21.1901    0.7016  -21.1039    0.6740  -21.1125    0.6500  -21.0737    0.7047  -21.1049    0.7374
  6.530  -20.9840    0.6504  -21.0571    0.6909  -20.9722    0.6639  -20.9809    0.6398  -20.9424    0.6942  -20.9732    0.7262
  6.540  -20.8538    0.6404  -20.9258    0.6804  -20.8423    0.6541  -20.8510    0.6299  -20.8128    0.6839  -20.8431    0.7153
  6.550  -20.7253    0.6308  -20.7962    0.6703  -20.7140    0.6445  -20.7228    0.6202  -20.6849    0.6739  -20.7147    0.7047
  6.560  -20.5985    0.6214  -20.6683    0.6604  -20.5874    0.6352  -20.5963    0.6108  -20.5586    0.6642  -20.5880    0.6944
  6.570  -20.4733    0.6122  -20.5420    0.6508  -20.4624    0.6261  -20.4713    0.6016  -20.4339    0.6547  -20.4628    0.6843
  6.580  -20.3496    0.6032  -20.4173    0.6414  -20.3389    0.6172  -20.3479    0.5926  -20.3107    0.6454  -20.3393    0.6745
  6.590  -20.2275    0.5945  -20.2942    0.6323  -20.2170    0.6086  -20.2260    0.5839  -20.1891    0.6364  -20.2172    0.6649
  6.600  -20.1068    0.5860  -20.1726    0.6233  -20.0966    0.6002  -20.1055    0.5754  -20.0690    0.6276  -20.0967    0.6556
  6.610  -19.9876    0.5777  -20.0525    0.6146  -19.9776    0.5919  -19.9866    0.5671  -19.9503    0.6190  -19.9776    0.6465
  6.620  -19.8699    0.5696  -19.9339    0.6061  -19.8600    0.5839  -19.8690    0.5590  -19.8330    0.6106  -19.8599    0.6376
  6.630  -19.7536    0.5617  -19.8166    0.5979  -19.7438    0.5761  -19.7529    0.5511  -19.7171    0.6024  -19.7437    0.6289
  6.640  -19.6386    0.5540  -19.7008    0.5898  -19.6290    0.5684  -19.6381    0.5434  -19.6026    0.5945  -19.6288    0.6204
  6.650  -19.5249    0.5465  -19.5863    0.5819  -19.5156    0.5609  -19.5246    0.5358  -19.4894    0.5866  -19.5152    0.6122
  6.660  -19.4126    0.5392  -19.4732    0.5741  -19.4034    0.5536  -19.4125    0.5285  -19.3775    0.5790  -19.4030    0.6041
  6.670  -19.3016    0.5320  -19.3613    0.5666  -19.2925    0.5465  -19.3016    0.5213  -19.2669    0.5715  -19.2920    0.5962
  6.680  -19.1918    0.5250  -19.2508    0.5592  -19.1829    0.5395  -19.1920    0.5143  -19.1575    0.5643  -19.1823    0.5885
  6.690  -19.0832    0.5181  -19.1415    0.5520  -19.0745    0.5327  -19.0836    0.5074  -19.0494    0.5571  -19.0738    0.5809
  6.700  -18.9759    0.5114  -19.0334    0.5450  -18.9673    0.5260  -18.9764    0.5007  -18.9424    0.5502  -18.9666    0.5735
  6.710  -18.8697    0.5049  -18.9265    0.5381  -18.8612    0.5195  -18.8703    0.4942  -18.8366    0.5433  -18.8605    0.5663
  6.720  -18.7647    0.4984  -18.8208    0.5314  -18.7564    0.5131  -18.7655    0.4878  -18.7320    0.5367  -18.7555    0.5593
  6.730  -18.6608    0.4922  -18.7162    0.5248  -18.6526    0.5068  -18.6617    0.4815  -18.6285    0.5301  -18.6517    0.5524
  6.740  -18.5580    0.4860  -18.6128    0.5183  -18.5500    0.5007  -18.5591    0.4754  -18.5261    0.5237  -18.5490    0.5456
  6.750  -18.4563    0.4800  -18.5104    0.5120  -18.4484    0.4947  -18.4575    0.4694  -18.4248    0.5175  -18.4474    0.5390
  6.760  -18.3557    0.4742  -18.4092    0.5058  -18.3480    0.4888  -18.3570    0.4635  -18.3245    0.5114  -18.3469    0.5325
  6.770  -18.2561    0.4684  -18.3090    0.4998  -18.2485    0.4831  -18.2576    0.4578  -18.2253    0.5054  -18.2474    0.5262
  6.780  -18.1576    0.4628  -18.2099    0.4938  -18.1501    0.4775  -18.1592    0.4522  -18.1271    0.4995  -18.1489    0.5200
  6.790  -18.0601    0.4573  -18.1118    0.4880  -18.0527    0.4720  -18.0618    0.4466  -18.0299    0.4937  -18.0515    0.5139
  6.800  -17.9636    0.4519  -18.0147    0.4824  -17.9563    0.4665  -17.9653    0.4413  -17.9337    0.4881  -17.9550    0.5079
  6.810  -17.8680    0.4466  -17.9186    0.4768  -17.8609    0.4612  -17.8699    0.4360  -17.8385    0.4826  -17.8596    0.5021
  6.820  -17.7734    0.4414  -17.8234    0.4713  -17.7664    0.4560  -17.7754    0.4308  -17.7442    0.4771  -17.7650    0.4963
  6.830  -17.6798    0.4363  -17.7292    0.4660  -17.6728    0.4510  -17.6818    0.4257  -17.6509    0.4718  -17.6714    0.4907
  6.840  -17.5870    0.4313  -17.6360    0.4607  -17.5802    0.4460  -17.5892    0.4207  -17.5584    0.4666  -17.5788    0.4852
  6.850  -17.4952    0.4265  -17.5436    0.4556  -17.4885    0.4411  -17.4974    0.4159  -17.4669    0.4615  -17.4870    0.4798
  6.860  -17.4042    0.4217  -17.4522    0.4505  -17.3976    0.4363  -17.4066    0.4111  -17.3762    0.4565  -17.3961    0.4745
  6.870  -17.3142    0.4170  -17.3616    0.4456  -17.3077    0.4315  -17.3166    0.4064  -17.2865    0.4515  -17.3061    0.4694
  6.880  -17.2250    0.4124  -17.2720    0.4407  -17.2185    0.4269  -17.2274    0.4018  -17.1975    0.4467  -17.2170    0.4643
  6.890  -17.1366    0.4079  -17.1831    0.4359  -17.1303    0.4224  -17.1392    0.3973  -17.1095    0.4420  -17.1287    0.4593
  6.900  -17.0491    0.4034  -17.0951    0.4313  -17.0428    0.4179  -17.0517    0.3929  -17.0222    0.4373  -17.0412    0.4544
  6.910  -16.9624    0.3991  -17.0080    0.4267  -16.9562    0.4135  -16.9651    0.3885  -16.9358    0.4328  -16.9546    0.4496
  6.920  -16.8764    0.3948  -16.9216    0.4222  -16.8704    0.4092  -16.8792    0.3842  -16.8501    0.4283  -16.8687    0.4448
  6.930  -16.7913    0.3906  -16.8361    0.4177  -16.7854    0.4050  -16.7942    0.3801  -16.7653    0.4239  -16.7837    0.4402
  6.940  -16.7070    0.3865  -16.7513    0.4134  -16.7011    0.4009  -16.7099    0.3759  -16.6812    0.4196  -16.6994    0.4356
  6.950  -16.6234    0.3824  -16.6674    0.4091  -16.6176    0.3968  -16.6264    0.3719  -16.5979    0.4153  -16.6159    0.4312
  6.960  -16.5406    0.3785  -16.5841    0.4049  -16.5349    0.3928  -16.5436    0.3680  -16.5153    0.4111  -16.5331    0.4268
  6.970  -16.4585    0.3746  -16.5017    0.4008  -16.4529    0.3888  -16.4616    0.3641  -16.4335    0.4070  -16.4511    0.4224
  6.980  -16.3771    0.3707  -16.4199    0.3967  -16.3716    0.3850  -16.3803    0.3602  -16.3523    0.4030  -16.3698    0.4182
  6.990  -16.2965    0.3670  -16.3389    0.3928  -16.2910    0.3812  -16.2997    0.3565  -16.2719    0.3990  -16.2892    0.4140
  7.000  -16.2166    0.3633  -16.2586    0.3889  -16.2112    0.3774  -16.2198    0.3528  -16.1923    0.3951  -16.2094    0.4099
  7.010  -16.1373    0.3597  -16.1790    0.3850  -16.1320    0.3738  -16.1406    0.3492  -16.1132    0.3913  -16.1302    0.4059
  7.020  -16.0588    0.3561  -16.1001    0.3812  -16.0535    0.3702  -16.0621    0.3456  -16.0349    0.3876  -16.0517    0.4020
  7.030  -15.9809    0.3526  -16.0219    0.3775  -15.9757    0.3666  -15.9843    0.3421  -15.9573    0.3839  -15.9739    0.3981
  7.040  -15.9037    0.3491  -15.9444    0.3739  -15.8986    0.3631  -15.9071    0.3386  -15.8803    0.3802  -15.8967    0.3942
  7.050  -15.8271    0.3457  -15.8675    0.3703  -15.8221    0.3597  -15.8306    0.3353  -15.8039    0.3766  -15.8202    0.3905
  7.060  -15.7512    0.3424  -15.7913    0.3667  -15.7462    0.3563  -15.7547    0.3319  -15.7282    0.3731  -15.7444    0.3868
  7.070  -15.6759    0.3391  -15.7157    0.3633  -15.6710    0.3530  -15.6795    0.3286  -15.6532    0.3697  -15.6692    0.3831
  7.080  -15.6012    0.3359  -15.6407    0.3598  -15.5964    0.3497  -15.6049    0.3254  -15.5787    0.3663  -15.5946    0.3796
  7.090  -15.5272    0.3327  -15.5664    0.3565  -15.5225    0.3465  -15.5309    0.3223  -15.5049    0.3629  -15.5206    0.3760
  7.100  -15.4538    0.3296  -15.4927    0.3532  -15.4491    0.3433  -15.4575    0.3191  -15.4317    0.3596  -15.4472    0.3726
  7.110  -15.3809    0.3265  -15.4196    0.3499  -15.3763    0.3402  -15.3847    0.3161  -15.3591    0.3564  -15.3744    0.3692
  7.120  -15.3087    0.3235  -15.3471    0.3467  -15.3041    0.3371  -15.3125    0.3130  -15.2870    0.3532  -15.3023    0.3658
  7.130  -15.2370    0.3205  -15.2751    0.3435  -15.2325    0.3341  -15.2408    0.3101  -15.2156    0.3500  -15.2307    0.3625
  7.140  -15.1660    0.3176  -15.2038    0.3404  -15.1615    0.3311  -15.1698    0.3071  -15.1447    0.3469  -15.1596    0.3592
  7.150  -15.0954    0.3147  -15.1330    0.3374  -15.0910    0.3282  -15.0993    0.3043  -15.0743    0.3439  -15.0892    0.3560
  7.160  -15.0255    0.3119  -15.0628    0.3344  -15.0211    0.3253  -15.0294    0.3014  -15.0046    0.3409  -15.0193    0.3529
  7.170  -14.9561    0.3091  -14.9931    0.3314  -14.9518    0.3225  -14.9600    0.2986  -14.9354    0.3379  -14.9499    0.3498
  7.180  -14.8872    0.3063  -14.9240    0.3285  -14.8829    0.3197  -14.8911    0.2959  -14.8667    0.3350  -14.8811    0.3467
  7.190  -14.8188    0.3036  -14.8555    0.3256  -14.8147    0.3169  -14.8228    0.2932  -14.7985    0.3321  -14.8128    0.3437
  7.200  -14.7510    0.3009  -14.7874    0.3228  -14.7469    0.3142  -14.7551    0.2905  -14.7309    0.3293  -14.7451    0.3408
  7.210  -14.6838    0.2983  -14.7199    0.3200  -14.6797    0.3115  -14.6878    0.2879  -14.6638    0.3265  -14.6779    0.3378
  7.220  -14.6170    0.2957  -14.6529    0.3172  -14.6130    0.3089  -14.6211    0.2853  -14.5972    0.3238  -14.6111    0.3350
  7.230  -14.5507    0.2932  -14.5865    0.3145  -14.5467    0.3063  -14.5548    0.2827  -14.5311    0.3211  -14.5449    0.3321
  7.240  -14.4850    0.2907  -14.5205    0.3118  -14.4810    0.3037  -14.4891    0.2802  -14.4655    0.3184  -14.4792    0.3293
  7.250  -14.4197    0.2882  -14.4550    0.3092  -14.4158    0.3012  -14.4238    0.2777  -14.4004    0.3158  -14.4140    0.3266
  7.260  -14.3549    0.2857  -14.3900    0.3066  -14.3511    0.2987  -14.3591    0.2753  -14.3358    0.3132  -14.3493    0.3239
  7.270  -14.2906    0.2833  -14.3255    0.3040  -14.2868    0.2963  -14.2948    0.2729  -14.2717    0.3106  -14.2851    0.3212
  7.280  -14.2268    0.2810  -14.2615    0.3015  -14.2230    0.2938  -14.2310    0.2705  -14.2080    0.3081  -14.2213    0.3186
  7.290  -14.1634    0.2786  -14.1980    0.2990  -14.1597    0.2914  -14.1677    0.2682  -14.1448    0.3057  -14.1580    0.3160
  7.300  -14.1005    0.2763  -14.1349    0.2966  -14.0968    0.2891  -14.1048    0.2659  -14.0821    0.3032  -14.0951    0.3134
  7.310  -14.0381    0.2741  -14.0723    0.2942  -14.0345    0.2868  -14.0424    0.2636  -14.0198    0.3008  -14.0328    0.3109
  7.320  -13.9761    0.2718  -14.0102    0.2918  -13.9725    0.2845  -13.9804    0.2614  -13.9580    0.2984  -13.9708    0.3084
  7.330  -13.9145    0.2696  -13.9484    0.2894  -13.9110    0.2822  -13.9189    0.2592  -13.8966    0.2961  -13.9094    0.3059
  7.340  -13.8534    0.2675  -13.8872    0.2871  -13.8499    0.2800  -13.8578    0.2570  -13.8357    0.2938  -13.8483    0.3035
  7.350  -13.7928    0.2653  -13.8264    0.2848  -13.7893    0.2778  -13.7971    0.2548  -13.7752    0.2915  -13.7877    0.3011
  7.360  -13.7325    0.2632  -13.7660    0.2826  -13.7291    0.2757  -13.7369    0.2527  -13.7151    0.2893  -13.7275    0.2988
  7.370  -13.6727    0.2611  -13.7060    0.2804  -13.6693    0.2735  -13.6771    0.2506  -13.6554    0.2871  -13.6678    0.2965
  7.380  -13.6133    0.2591  -13.6465    0.2782  -13.6100    0.2714  -13.6178    0.2485  -13.5962    0.2849  -13.6084    0.2942
  7.390  -13.5543    0.2570  -13.5874    0.2760  -13.5510    0.2693  -13.5588    0.2465  -13.5374    0.2827  -13.5495    0.2919
  7.400  -13.4958    0.2550  -13.5287    0.2739  -13.4925    0.2673  -13.5002    0.2445  -13.4789    0.2806  -13.4910    0.2897
  7.410  -13.4376    0.2531  -13.4704    0.2718  -13.4344    0.2653  -13.4421    0.2425  -13.4209    0.2785  -13.4329    0.2875
  7.420  -13.3798    0.2511  -13.4125    0.2697  -13.3766    0.2633  -13.3843    0.2406  -13.3633    0.2764  -13.3752    0.2854
  7.430  -13.3224    0.2492  -13.3550    0.2676  -13.3193    0.2613  -13.3270    0.2386  -13.3061    0.2744  -13.3178    0.2832
  7.440  -13.2655    0.2473  -13.2979    0.2656  -13.2623    0.2593  -13.2700    0.2367  -13.2492    0.2724  -13.2609    0.2811
  7.450  -13.2088    0.2454  -13.2411    0.2636  -13.2057    0.2574  -13.2134    0.2348  -13.1928    0.2704  -13.2044    0.2790
  7.460  -13.1526    0.2436  -13.1848    0.2616  -13.1495    0.2555  -13.1572    0.2330  -13.1367    0.2684  -13.1482    0.2770
  7.470  -13.0968    0.2418  -13.1289    0.2597  -13.0937    0.2537  -13.1014    0.2311  -13.0810    0.2665  -13.0924    0.2750
  7.480  -13.0413    0.2400  -13.0733    0.2578  -13.0383    0.2518  -13.0459    0.2293  -13.0256    0.2646  -13.0370    0.2730
  7.490  -12.9862    0.2382  -13.0181    0.2559  -12.9832    0.2500  -12.9908    0.2276  -12.9707    0.2627  -12.9819    0.2710
  7.500  -12.9314    0.2365  -12.9632    0.2540  -12.9285    0.2482  -12.9361    0.2258  -12.9161    0.2608  -12.9272    0.2691
  7.510  -12.8770    0.2347  -12.9088    0.2521  -12.8741    0.2464  -12.8817    0.2240  -12.8618    0.2590  -12.8729    0.2671
  7.520  -12.8230    0.2330  -12.8546    0.2503  -12.8201    0.2447  -12.8277    0.2223  -12.8079    0.2572  -12.8189    0.2652
  7.530  -12.7693    0.2314  -12.8009    0.2485  -12.7664    0.2429  -12.7740    0.2206  -12.7544    0.2554  -12.7653    0.2634
  7.540  -12.7160    0.2297  -12.7475    0.2467  -12.7131    0.2412  -12.7207    0.2189  -12.7012    0.2536  -12.7120    0.2615
  7.550  -12.6630    0.2281  -12.6944    0.2450  -12.6602    0.2395  -12.6677    0.2173  -12.6483    0.2519  -12.6591    0.2597
  7.560  -12.6103    0.2265  -12.6416    0.2432  -12.6075    0.2379  -12.6151    0.2156  -12.5958    0.2502  -12.6065    0.2579
  7.570  -12.5580    0.2249  -12.5893    0.2415  -12.5552    0.2362  -12.5627    0.2140  -12.5436    0.2485  -12.5542    0.2561
  7.580  -12.5060    0.2233  -12.5372    0.2398  -12.5033    0.2346  -12.5108    0.2124  -12.4917    0.2468  -12.5023    0.2544
  7.590  -12.4543    0.2217  -12.4855    0.2382  -12.4516    0.2330  -12.4591    0.2108  -12.4402    0.2451  -12.4507    0.2527
  7.600  -12.4030    0.2202  -12.4341    0.2365  -12.4003    0.2314  -12.4078    0.2093  -12.3890    0.2435  -12.3994    0.2510
  7.610  -12.3520    0.2187  -12.3830    0.2349  -12.3493    0.2298  -12.3568    0.2077  -12.3381    0.2419  -12.3484    0.2493
  7.620  -12.3012    0.2172  -12.3322    0.2333  -12.2986    0.2283  -12.3061    0.2062  -12.2875    0.2403  -12.2978    0.2476
  7.630  -12.2508    0.2157  -12.2818    0.2317  -12.2482    0.2267  -12.2557    0.2047  -12.2372    0.2387  -12.2474    0.2460
  7.640  -12.2008    0.2142  -12.2317    0.2301  -12.1982    0.2252  -12.2056    0.2032  -12.1873    0.2372  -12.1974    0.2443
  7.650  -12.1510    0.2128  -12.1819    0.2285  -12.1484    0.2237  -12.1559    0.2017  -12.1376    0.2356  -12.1477    0.2427
  7.660  -12.1015    0.2114  -12.1323    0.2270  -12.0989    0.2223  -12.1064    0.2003  -12.0883    0.2341  -12.0983    0.2412
  7.670  -12.0523    0.2100  -12.0831    0.2255  -12.0498    0.2208  -12.0572    0.1988  -12.0392    0.2326  -12.0491    0.2396
  7.680  -12.0034    0.2086  -12.0342    0.2240  -12.0009    0.2194  -12.0084    0.1974  -11.9905    0.2312  -12.0003    0.2381
  7.690  -11.9548    0.2072  -11.9856    0.2225  -11.9523    0.2180  -11.9598    0.1960  -11.9420    0.2297  -11.9518    0.2365
  7.700  -11.9065    0.2059  -11.9373    0.2211  -11.9040    0.2166  -11.9115    0.1946  -11.8938    0.2283  -11.9035    0.2350
  7.710  -11.8585    0.2045  -11.8892    0.2196  -11.8560    0.2152  -11.8635    0.1933  -11.8459    0.2268  -11.8556    0.2335
  7.720  -11.8107    0.2032  -11.8415    0.2182  -11.8083    0.2138  -11.8158    0.1919  -11.7983    0.2254  -11.8079    0.2321
  7.730  -11.7633    0.2019  -11.7940    0.2168  -11.7609    0.2124  -11.7683    0.1906  -11.7510    0.2241  -11.7605    0.2306
  7.740  -11.7161    0.2006  -11.7468    0.2154  -11.7137    0.2111  -11.7211    0.1892  -11.7039    0.2227  -11.7134    0.2292
  7.750  -11.6692    0.1994  -11.6999    0.2140  -11.6668    0.2098  -11.6743    0.1879  -11.6571    0.2213  -11.6665    0.2278
  7.760  -11.6225    0.1981  -11.6533    0.2127  -11.6202    0.2085  -11.6276    0.1866  -11.6106    0.2200  -11.6200    0.2264
  7.770  -11.5762    0.1969  -11.6069    0.2113  -11.5739    0.2072  -11.5813    0.1853  -11.5644    0.2187  -11.5737    0.2250
  7.780  -11.5301    0.1956  -11.5608    0.2100  -11.5278    0.2059  -11.5352    0.1841  -11.5184    0.2174  -11.5276    0.2237
  7.790  -11.4842    0.1944  -11.5150    0.2087  -11.4819    0.2047  -11.4894    0.1828  -11.4727    0.2161  -11.4818    0.2223
  7.800  -11.4386    0.1932  -11.4694    0.2074  -11.4364    0.2034  -11.4438    0.1816  -11.4272    0.2148  -11.4363    0.2210
  7.810  -11.3933    0.1921  -11.4241    0.2061  -11.3910    0.2022  -11.3985    0.1803  -11.3820    0.2136  -11.3911    0.2197
  7.820  -11.3482    0.1909  -11.3791    0.2048  -11.3460    0.2010  -11.3534    0.1791  -11.3370    0.2124  -11.3461    0.2184
  7.830  -11.3034    0.1898  -11.3343    0.2036  -11.3012    0.1998  -11.3086    0.1779  -11.2923    0.2111  -11.3013    0.2172
  7.840  -11.2588    0.1886  -11.2898    0.2023  -11.2566    0.1986  -11.2641    0.1767  -11.2479    0.2099  -11.2568    0.2159
  7.850  -11.2145    0.1875  -11.2455    0.2011  -11.2123    0.1974  -11.2197    0.1755  -11.2037    0.2087  -11.2125    0.2147
  7.860  -11.1704    0.1864  -11.2014    0.1999  -11.1682    0.1963  -11.1757    0.1744  -11.1597    0.2076  -11.1685    0.2134
  7.870  -11.1265    0.1853  -11.1576    0.1987  -11.1243    0.1951  -11.1318    0.1732  -11.1159    0.2064  -11.1247    0.2122
  7.880  -11.0829    0.1842  -11.1140    0.1975  -11.0807    0.1940  -11.0882    0.1721  -11.0725    0.2053  -11.0812    0.2110
  7.890  -11.0395    0.1832  -11.0707    0.1964  -11.0374    0.1929  -11.0449    0.1709  -11.0292    0.2042  -11.0378    0.2099
  7.900  -10.9963    0.1821  -11.0276    0.1952  -10.9942    0.1918  -11.0017    0.1698  -10.9862    0.2030  -10.9948    0.2087
  7.910  -10.9534    0.1811  -10.9848    0.1941  -10.9513    0.1907  -10.9588    0.1687  -10.9434    0.2019  -10.9519    0.2076
  7.920  -10.9107    0.1800  -10.9421    0.1929  -10.9086    0.1896  -10.9162    0.1676  -10.9008    0.2009  -10.9093    0.2064
  7.930  -10.8682    0.1790  -10.8997    0.1918  -10.8662    0.1886  -10.8737    0.1665  -10.8584    0.1998  -10.8669    0.2053
  7.940  -10.8260    0.1780  -10.8576    0.1907  -10.8239    0.1875  -10.8315    0.1655  -10.8163    0.1987  -10.8247    0.2042
  7.950  -10.7840    0.1771  -10.8156    0.1896  -10.7819    0.1865  -10.7895    0.1644  -10.7744    0.1977  -10.7828    0.2031
  7.960  -10.7421    0.1761  -10.7739    0.1886  -10.7401    0.1854  -10.7477    0.1634  -10.7327    0.1967  -10.7410    0.2021
  7.970  -10.7005    0.1751  -10.7324    0.1875  -10.6985    0.1844  -10.7061    0.1623  -10.6912    0.1957  -10.6995    0.2010
  7.980  -10.6591    0.1742  -10.6911    0.1865  -10.6571    0.1834  -10.6647    0.1613  -10.6500    0.1947  -10.6582    0.2000
  7.990  -10.6179    0.1732  -10.6500    0.1854  -10.6159    0.1825  -10.6236    0.1603  -10.6089    0.1937  -10.6171    0.1989
  8.000  -10.5770    0.1723  -10.6092    0.1844  -10.5750    0.1815  -10.5826    0.1593  -10.5681    0.1927  -10.5762    0.1979
  8.010  -10.5362    0.1714  -10.5685    0.1834  -10.5342    0.1805  -10.5419    0.1583  -10.5274    0.1918  -10.5355    0.1969
  8.020  -10.4956    0.1705  -10.5281    0.1824  -10.4936    0.1796  -10.5013    0.1573  -10.4870    0.1908  -10.4950    0.1959
  8.030  -10.4552    0.1696  -10.4878    0.1814  -10.4533    0.1786  -10.4610    0.1563  -10.4467    0.1899  -10.4547    0.1950
  8.040  -10.4151    0.1688  -10.4478    0.1804  -10.4131    0.1777  -10.4208    0.1553  -10.4067    0.1890  -10.4146    0.1940
  8.050  -10.3751    0.1679  -10.4079    0.1795  -10.3731    0.1768  -10.3809    0.1544  -10.3668    0.1881  -10.3747    0.1931
  8.060  -10.3353    0.1671  -10.3683    0.1785  -10.3333    0.1759  -10.3411    0.1534  -10.3272    0.1872  -10.3350    0.1921
  8.070  -10.2957    0.1662  -10.3288    0.1776  -10.2937    0.1750  -10.3016    0.1525  -10.2877    0.1863  -10.2955    0.1912
  8.080  -10.2563    0.1654  -10.2896    0.1767  -10.2543    0.1741  -10.2622    0.1515  -10.2484    0.1855  -10.2562    0.1903
  8.090  -10.2170    0.1646  -10.2505    0.1758  -10.2151    0.1733  -10.2230    0.1506  -10.2093    0.1846  -10.2171    0.1894
  8.100  -10.1780    0.1638  -10.2116    0.1749  -10.1761    0.1724  -10.1840    0.1497  -10.1704    0.1838  -10.1781    0.1886
  8.110  -10.1391    0.1630  -10.1729    0.1740  -10.1372    0.1716  -10.1452    0.1488  -10.1317    0.1830  -10.1393    0.1877
  8.120  -10.1004    0.1622  -10.1344    0.1731  -10.0985    0.1708  -10.1065    0.1479  -10.0931    0.1821  -10.1008    0.1869
  8.130  -10.0619    0.1615  -10.0961    0.1722  -10.0600    0.1699  -10.0680    0.1470  -10.0548    0.1814  -10.0623    0.1860
  8.140  -10.0236    0.1607  -10.0580    0.1714  -10.0217    0.1691  -10.0297    0.1461  -10.0166    0.1806  -10.0241    0.1852
  8.150   -9.9854    0.1600  -10.0200    0.1705   -9.9835    0.1684   -9.9916    0.1453   -9.9786    0.1798   -9.9860    0.1844
  8.160   -9.9474    0.1592   -9.9822    0.1697   -9.9455    0.1676   -9.9537    0.1444   -9.9407    0.1791   -9.9482    0.1836
  8.170   -9.9096    0.1585   -9.9446    0.1689   -9.9077    0.1668   -9.9159    0.1435   -9.9030    0.1783   -9.9104    0.1829
  8.180   -9.8719    0.1578   -9.9072    0.1680   -9.8701    0.1660   -9.8782    0.1427   -9.8655    0.1776   -9.8729    0.1821
  8.190   -9.8344    0.1571   -9.8699    0.1672   -9.8326    0.1653   -9.8408    0.1418   -9.8281    0.1769   -9.8355    0.1814
  8.200   -9.7971    0.1564   -9.8328    0.1665   -9.7952    0.1646   -9.8035    0.1410   -9.7909    0.1762   -9.7983    0.1806
  8.210   -9.7599    0.1558   -9.7959    0.1657   -9.7580    0.1638   -9.7663    0.1402   -9.7539    0.1755   -9.7612    0.1799
  8.220   -9.7228    0.1551   -9.7591    0.1649   -9.7210    0.1631   -9.7294    0.1394   -9.7170    0.1748   -9.7243    0.1792
  8.230   -9.6860    0.1545   -9.7225    0.1641   -9.6841    0.1624   -9.6925    0.1386   -9.6803    0.1742   -9.6875    0.1785
  8.240   -9.6492    0.1538   -9.6861    0.1634   -9.6474    0.1617   -9.6559    0.1378   -9.6437    0.1735   -9.6509    0.1779
  8.250   -9.6126    0.1532   -9.6498    0.1627   -9.6108    0.1611   -9.6193    0.1370   -9.6073    0.1729   -9.6144    0.1772
  8.260   -9.5762    0.1526   -9.6136    0.1619   -9.5744    0.1604   -9.5829    0.1362   -9.5710    0.1723   -9.5781    0.1766
  8.270   -9.5399    0.1520   -9.5777    0.1612   -9.5381    0.1598   -9.5467    0.1354   -9.5349    0.1717   -9.5420    0.1759
  8.280   -9.5038    0.1514   -9.5418    0.1605   -9.5019    0.1591   -9.5106    0.1347   -9.4989    0.1711   -9.5060    0.1753
  8.290   -9.4678    0.1509   -9.5061    0.1598   -9.4659    0.1585   -9.4747    0.1339   -9.4631    0.1706   -9.4701    0.1747
  8.300   -9.4319    0.1503   -9.4706    0.1592   -9.4301    0.1579   -9.4388    0.1331   -9.4274    0.1700   -9.4343    0.1741
  8.310   -9.3961    0.1498   -9.4352    0.1585   -9.3943    0.1573   -9.4032    0.1324   -9.3918    0.1695   -9.3987    0.1736
  8.320   -9.3605    0.1492   -9.4000    0.1578   -9.3587    0.1567   -9.3676    0.1316   -9.3564    0.1689   -9.3633    0.1730
  8.330   -9.3250    0.1487   -9.3649    0.1572   -9.3232    0.1561   -9.3322    0.1309   -9.3211    0.1684   -9.3279    0.1725
  8.340   -9.2897    0.1482   -9.3299    0.1566   -9.2879    0.1555   -9.2969    0.1302   -9.2859    0.1679   -9.2927    0.1719
  8.350   -9.2545    0.1477   -9.2951    0.1559   -9.2526    0.1550   -9.2617    0.1295   -9.2509    0.1675   -9.2576    0.1714
  8.360   -9.2193    0.1472   -9.2604    0.1553   -9.2175    0.1545   -9.2267    0.1288   -9.2159    0.1670   -9.2227    0.1710
  8.370   -9.1843    0.1468   -9.2258    0.1547   -9.1825    0.1539   -9.1918    0.1280   -9.1811    0.1666   -9.1879    0.1705
  8.380   -9.1495    0.1463   -9.1914    0.1541   -9.1476    0.1534   -9.1570    0.1273   -9.1465    0.1661   -9.1531    0.1700
  8.390   -9.1147    0.1459   -9.1570    0.1536   -9.1129    0.1529   -9.1223    0.1267   -9.1119    0.1657   -9.1186    0.1696
  8.400   -9.0801    0.1455   -9.1229    0.1530   -9.0782    0.1524   -9.0877    0.1260   -9.0774    0.1653   -9.0841    0.1692
  8.410   -9.0455    0.1451   -9.0888    0.1524   -9.0437    0.1520   -9.0532    0.1253   -9.0431    0.1650   -9.0497    0.1688
  8.420   -9.0111    0.1447   -9.0549    0.1519   -9.0092    0.1515   -9.0189    0.1246   -9.0089    0.1646   -9.0154    0.1684
  8.430   -8.9767    0.1443   -9.0210    0.1514   -8.9749    0.1511   -8.9846    0.1239   -8.9748    0.1643   -8.9813    0.1680
  8.440   -8.9425    0.1439   -8.9873    0.1509   -8.9406    0.1506   -8.9505    0.1233   -8.9407    0.1640   -8.9472    0.1677
  8.450   -8.9083    0.1436   -8.9537    0.1504   -8.9065    0.1502   -8.9164    0.1226   -8.9068    0.1637   -8.9133    0.1673
  8.460   -8.8743    0.1433   -8.9202    0.1499   -8.8724    0.1498   -8.8824    0.1220   -8.8730    0.1634   -8.8794    0.1670
  8.470   -8.8403    0.1430   -8.8869    0.1494   -8.8384    0.1494   -8.8486    0.1213   -8.8393    0.1631   -8.8457    0.1668
  8.480   -8.8065    0.1427   -8.8536    0.1489   -8.8046    0.1491   -8.8148    0.1207   -8.8056    0.1629   -8.8120    0.1665
  8.490   -8.7727    0.1424   -8.8204    0.1485   -8.7708    0.1487   -8.7811    0.1201   -8.7721    0.1626   -8.7785    0.1662
  8.500   -8.7390    0.1421   -8.7874    0.1480   -8.7370    0.1484   -8.7475    0.1194   -8.7386    0.1625   -8.7450    0.1660
  8.510   -8.7053    0.1419   -8.7544    0.1476   -8.7034    0.1481   -8.7140    0.1188   -8.7053    0.1623   -8.7116    0.1658
  8.520   -8.6718    0.1417   -8.7216    0.1472   -8.6698    0.1478   -8.6805    0.1182   -8.6720    0.1621   -8.6782    0.1657
  8.530   -8.6383    0.1415   -8.6888    0.1468   -8.6363    0.1475   -8.6471    0.1176   -8.6387    0.1620   -8.6450    0.1655
  8.540   -8.6049    0.1413   -8.6561    0.1464   -8.6029    0.1472   -8.6138    0.1170   -8.6056    0.1619   -8.6118    0.1654
  8.550   -8.5715    0.1411   -8.6235    0.1460   -8.5695    0.1470   -8.5806    0.1164   -8.5725    0.1618   -8.5787    0.1653
  8.560   -8.5382    0.1410   -8.5910    0.1457   -8.5362    0.1468   -8.5474    0.1158   -8.5395    0.1618   -8.5457    0.1652
  8.570   -8.5049    0.1409   -8.5586    0.1454   -8.5029    0.1466   -8.5143    0.1153   -8.5066    0.1617   -8.5127    0.1651
  8.580   -8.4717    0.1408   -8.5262    0.1450   -8.4697    0.1464   -8.4812    0.1147   -8.4737    0.1617   -8.4798    0.1651
  8.590   -8.4386    0.1407   -8.4940    0.1447   -8.4365    0.1462   -8.4482    0.1141   -8.4408    0.1618   -8.4469    0.1651
  8.600   -8.4055    0.1407   -8.4618    0.1444   -8.4034    0.1461   -8.4152    0.1136   -8.4081    0.1618   -8.4141    0.1652
  8.610   -8.3724    0.1406   -8.4297    0.1442   -8.3703    0.1459   -8.3823    0.1130   -8.3753    0.1619   -8.3814    0.1652
  8.620   -8.3394    0.1406   -8.3976    0.1439   -8.3373    0.1458   -8.3494    0.1125   -8.3426    0.1620   -8.3487    0.1653
  8.630   -8.3064    0.1407   -8.3656    0.1437   -8.3042    0.1458   -8.3165    0.1119   -8.3100    0.1622   -8.3160    0.1655
  8.640   -8.2734    0.1407   -8.3337    0.1434   -8.2712    0.1457   -8.2837    0.1114   -8.2774    0.1624   -8.2833    0.1656
  8.650   -8.2404    0.1408   -8.3018    0.1432   -8.2382    0.1457   -8.2509    0.1109   -8.2448    0.1626   -8.2507    0.1658
  8.660   -8.2075    0.1410   -8.2700    0.1431   -8.2052    0.1457   -8.2181    0.1103   -8.2122    0.1629   -8.2181    0.1661
  8.670   -8.1745    0.1411   -8.2382    0.1429   -8.1722    0.1457   -8.1853    0.1098   -8.1797    0.1632   -8.1856    0.1664
  8.680   -8.1416    0.1413   -8.2065    0.1428   -8.1393    0.1458   -8.1525    0.1093   -8.1471    0.1635   -8.1530    0.1667
  8.690   -8.1086    0.1415   -8.1748    0.1426   -8.1063    0.1459   -8.1197    0.1088   -8.1146    0.1639   -8.1205    0.1670
  8.700   -8.0757    0.1418   -8.1432    0.1425   -8.0733    0.1460   -8.0869    0.1083   -8.0821    0.1643   -8.0879    0.1675
  8.710   -8.0427    0.1421   -8.1116    0.1425   -8.0402    0.1462   -8.0541    0.1078   -8.0496    0.1648   -8.0554    0.1679
  8.720   -8.0097    0.1424   -8.0800    0.1424   -8.0072    0.1464   -8.0213    0.1073   -8.0171    0.1653   -8.0228    0.1684
  8.730   -7.9766    0.1428   -8.0484    0.1424   -7.9741    0.1466   -7.9884    0.1069   -7.9845    0.1659   -7.9903    0.1690
  8.740   -7.9436    0.1432   -8.0169    0.1424   -7.9410    0.1469   -7.9556    0.1064   -7.9520    0.1665   -7.9577    0.1696
  8.750   -7.9104    0.1437   -7.9854    0.1424   -7.9078    0.1472   -7.9226    0.1060   -7.9194    0.1672   -7.9251    0.1702
  8.760   -7.8772    0.1442   -7.9539    0.1424   -7.8745    0.1475   -7.8897    0.1055   -7.8867    0.1680   -7.8924    0.1710
  8.770   -7.8440    0.1448   -7.9224    0.1425   -7.8412    0.1479   -7.8566    0.1051   -7.8541    0.1688   -7.8597    0.1717
  8.780   -7.8107    0.1454   -7.8909    0.1426   -7.8078    0.1484   -7.8235    0.1046   -7.8213    0.1696   -7.8270    0.1726
  8.790   -7.7773    0.1461   -7.8594    0.1428   -7.7744    0.1489   -7.7903    0.1042   -7.7886    0.1706   -7.7942    0.1735
  8.800   -7.7438    0.1469   -7.8278    0.1429   -7.7408    0.1494   -7.7571    0.1038   -7.7557    0.1716   -7.7613    0.1745
  8.810   -7.7102    0.1477   -7.7963    0.1431   -7.7071    0.1500   -7.7237    0.1034   -7.7228    0.1727   -7.7284    0.1756
  8.820   -7.6765    0.1486   -7.7648    0.1434   -7.6733    0.1507   -7.6902    0.1030   -7.6898    0.1738   -7.6953    0.1767
  8.830   -7.6426    0.1495   -7.7332    0.1437   -7.6393    0.1514   -7.6566    0.1026   -7.6567    0.1751   -7.6622    0.1780
  8.840   -7.6086    0.1506   -7.7015    0.1440   -7.6053    0.1522   -7.6229    0.1022   -7.6234    0.1765   -7.6290    0.1793
  8.850   -7.5745    0.1517   -7.6699    0.1443   -7.5710    0.1530   -7.5890    0.1019   -7.5901    0.1779   -7.5956    0.1807
  8.860   -7.5402    0.1529   -7.6382    0.1447   -7.5366    0.1539   -7.5550    0.1015   -7.5566    0.1794   -7.5621    0.1823
  8.870   -7.5057    0.1542   -7.6064    0.1452   -7.5019    0.1549   -7.5207    0.1012   -7.5230    0.1811   -7.5285    0.1839
  8.880   -7.4710    0.1556   -7.5745    0.1456   -7.4671    0.1560   -7.4863    0.1009   -7.4892    0.1829   -7.4947    0.1857
  8.890   -7.4360    0.1571   -7.5426    0.1462   -7.4320    0.1572   -7.4517    0.1005   -7.4553    0.1848   -7.4607    0.1876
  8.900   -7.4009    0.1587   -7.5106    0.1468   -7.3967    0.1585   -7.4168    0.1002   -7.4211    0.1868   -7.4266    0.1896
  8.910   -7.3655    0.1605   -7.4785    0.1474   -7.3611    0.1598   -7.3817    0.1000   -7.3868    0.1890   -7.3922    0.1918
  8.920   -7.3298    0.1623   -7.4463    0.1481   -7.3252    0.1613   -7.3463    0.0997   -7.3522    0.1913   -7.3576    0.1941
  8.930   -7.2938    0.1644   -7.4140    0.1489   -7.2890    0.1629   -7.3106    0.0994   -7.3174    0.1938   -7.3228    0.1966
  8.940   -7.2575    0.1665   -7.3815    0.1497   -7.2525    0.1646   -7.2746    0.0992   -7.2824    0.1965   -7.2878    0.1992
  8.950   -7.2208    0.1689   -7.3489    0.1506   -7.2156    0.1665   -7.2383    0.0990   -7.2470    0.1994   -7.2524    0.2021
  8.960   -7.1838    0.1714   -7.3162    0.1516   -7.1783    0.1685   -7.2016    0.0988   -7.2114    0.2025   -7.2167    0.2051
  8.970   -7.1464    0.1741   -7.2833    0.1526   -7.1405    0.1706   -7.1644    0.0987   -7.1754    0.2058   -7.1808    0.2084
  8.980   -7.1085    0.1771   -7.2502    0.1537   -7.1023    0.1730   -7.1268    0.0985   -7.1391    0.2093   -7.1444    0.2119
  8.990   -7.0701    0.1802   -7.2169    0.1550   -7.0636    0.1755   -7.0888    0.0984   -7.1024    0.2131   -7.1077    0.2157
  9.000   -7.0313    0.1836   -7.1833    0.1563   -7.0243    0.1782   -7.0502    0.0984   -7.0653    0.2172   -7.0706    0.2198
  9.010   -6.9918    0.1873   -7.1496    0.1577   -6.9845    0.1811   -7.0111    0.0983   -7.0277    0.2216   -7.0330    0.2242
  9.020   -6.9518    0.1913   -7.1156    0.1592   -6.9439    0.1843   -6.9713    0.0983   -6.9897    0.2263   -6.9950    0.2289
  9.030   -6.9112    0.1956   -7.0814    0.1608   -6.9027    0.1877   -6.9309    0.0984   -6.9512    0.2314   -6.9564    0.2339
  9.040   -6.8698    0.2003   -7.0468    0.1626   -6.8608    0.1914   -6.8897    0.0985   -6.9121    0.2369   -6.9173    0.2394
  9.050   -6.8277    0.2054   -7.0120    0.1645   -6.8180    0.1955   -6.8478    0.0986   -6.8724    0.2428   -6.8776    0.2453
  9.060   -6.7848    0.2109   -6.9768    0.1665   -6.7743    0.1998   -6.8050    0.0988   -6.8320    0.2492   -6.8372    0.2517
  9.070   -6.7409    0.2169   -6.9412    0.1687   -6.7296    0.2046   -6.7613    0.0991   -6.7910    0.2561   -6.7962    0.2586
  9.080   -6.6962    0.2235   -6.9052    0.1710   -6.6839    0.2098   -6.7165    0.0994   -6.7492    0.2637   -6.7544    0.2661
  9.090   -6.6504    0.2306   -6.8689    0.1736   -6.6370    0.2154   -6.6707    0.0998   -6.7066    0.2718   -6.7118    0.2743
  9.100   -6.6034    0.2384   -6.8320    0.1763   -6.5888    0.2216   -6.6236    0.1004   -6.6631    0.2807   -6.6683    0.2832
  9.110   -6.5553    0.2469   -6.7947    0.1792   -6.5393    0.2283   -6.5751    0.1010   -6.6187    0.2904   -6.6238    0.2928
  9.120   -6.5058    0.2563   -6.7569    0.1824   -6.4882    0.2357   -6.5252    0.1018   -6.5732    0.3010   -6.5784    0.3034
  9.130   -6.4549    0.2666   -6.7185    0.1858   -6.4355    0.2439   -6.4736    0.1027   -6.5266    0.3126   -6.5318    0.3150
  9.140   -6.4023    0.2780   -6.6795    0.1894   -6.3809    0.2528   -6.4202    0.1037   -6.4789    0.3252   -6.4840    0.3276
  9.150   -6.3481    0.2906   -6.6398    0.1934   -6.3243    0.2627   -6.3648    0.1050   -6.4298    0.3392   -6.4350    0.3416
  9.160   -6.2920    0.3045   -6.5994    0.1976   -6.2654    0.2737   -6.3072    0.1065   -6.3794    0.3546   -6.3845    0.3569
  9.170   -6.2338    0.3200   -6.5583    0.2023   -6.2040    0.2858   -6.2471    0.1083   -6.3274    0.3715   -6.3325    0.3739
  9.180   -6.1734    0.3372   -6.5164    0.2073   -6.1398    0.2994   -6.1842    0.1104   -6.2737    0.3903   -6.2789    0.3927
  9.190   -6.1106    0.3565   -6.4736    0.2127   -6.0724    0.3146   -6.1182    0.1129   -6.2183    0.4112   -6.2235    0.4136
  9.200   -6.0450    0.3782   -6.4298    0.2185   -6.0016    0.3316   -6.0486    0.1158   -6.1610    0.4345   -6.1662    0.4368
  9.210   -5.9765    0.4025   -6.3851    0.2248   -5.9268    0.3509   -5.9751    0.1193   -6.1016    0.4606   -6.1068    0.4629
  9.220   -5.9048    0.4300   -6.3392    0.2316   -5.8476    0.3727   -5.8969    0.1234   -6.0400    0.4899   -6.0451    0.4921
  9.230   -5.8296    0.4612   -6.2921    0.2390   -5.7633    0.3975   -5.8135    0.1283   -5.9760    0.5228   -5.9812    0.5251
  9.240   -5.7504    0.4967   -6.2437    0.2470   -5.6732    0.4259   -5.7240    0.1342   -5.9095    0.5601   -5.9146    0.5623
  9.250   -5.6671    0.5374   -6.1938    0.2556   -5.5766    0.4587   -5.6275    0.1415   -5.8403    0.6025   -5.8454    0.6047
  9.260   -5.5791    0.5841   -6.1424    0.2650   -5.4723    0.4968   -5.5228    0.1503   -5.7683    0.6508   -5.7735    0.6530
  9.270   -5.4863    0.6381   -6.0893    0.2752   -5.3592    0.5414   -5.4084    0.1614   -5.6936    0.7063   -5.6988    0.7085
  9.280   -5.3882    0.7008   -6.0343    0.2863   -5.2358    0.5939   -5.2825    0.1752   -5.6161    0.7702   -5.6213    0.7723
  9.290   -5.2845    0.7738   -5.9775    0.2983   -5.1004    0.6566   -5.1429    0.1927   -5.5360    0.8441   -5.5412    0.8463
  9.300   -5.1751    0.8594   -5.9184    0.3112   -4.9508    0.7321   -4.9867    0.2151   -5.4538    0.9301   -5.4590    0.9323
  9.310   -5.0601    0.9602   -5.8570    0.3250   -4.7843    0.8241   -4.8102    0.2445   -5.3703    1.0307   -5.3756    1.0328
  9.320   -4.9397    1.0792   -5.7930    0.3396   -4.5977    0.9380   -4.6084    0.2834   -5.2869    1.1486   -5.2922    1.1507
  9.330   -4.8146    1.2205   -5.7262    0.3549   -4.3871    1.0813   -4.3750    0.3361   -5.2057    1.2875   -5.2111    1.2896
  9.340   -4.6862    1.3885   -5.6561    0.3704   -4.1479    1.2648   -4.1014    0.4092   -5.1302    1.4515   -5.1356    1.4535
  9.350   -4.5567    1.5888   -5.5822    0.3854   -3.8748    1.5052   -3.7762    0.5135   -5.0655    1.6452   -5.0709    1.6472
  9.360   -4.4288    1.8279   -5.5035    0.3986   -3.5634    1.8279   -3.3838    0.6667   -5.0194    1.8738   -5.0248    1.8758
  9.370   -4.3063    2.1144   -5.4182    0.4078   -3.2120    2.2738   -2.9044    0.9004   -5.0033    2.1423   -5.0088    2.1443
  9.380   -4.1932    2.4608   -5.3227    0.4093   -2.8313    2.9094   -2.3151    1.2714   -5.0345    2.4554   -5.0400    2.4574
  9.390   -4.0962    2.8901   -5.2087    0.3974   -2.4678    3.8434   -1.6010    1.8862   -5.1395    2.8154   -5.1451    2.8176
  9.400   -4.0356    3.4478   -5.0573    0.3659   -2.2710    5.2387   -0.8014    2.9423   -5.3629    3.2167   -5.3688    3.2191
  9.410   -4.0929    4.2133   -4.8274    0.3194   -2.6562    7.2469   -0.1658    4.7545   -5.7810    3.6199   -5.7876    3.6226
  9.420   -4.5216    5.2192   -4.4554    0.3177   -4.4820    9.5679   -0.5015    7.4995   -6.4785    3.8716   -6.4863    3.8740
  9.430   -5.6798    6.0916   -3.9594    0.5267   -8.2182   10.5249   -2.9686   10.1072   -7.3272    3.6605   -7.3361    3.6614
  9.440   -7.2317    6.0937   -3.5780    1.0144  -11.7356    8.5644   -6.6648   10.3695   -7.8186    2.9805   -7.8272    2.9793
  9.450   -8.3135    5.3670   -3.4378    1.5611  -12.8938    5.4893   -9.0879    8.6628   -7.8009    2.3422   -7.8081    2.3397
  9.460   -8.8152    4.5481   -3.4135    2.0424  -12.4829    3.1905   -9.9574    6.8201   -7.5801    1.9685   -7.5859    1.9658
  9.470   -9.0018    3.8770   -3.4170    2.4970  -11.6242    1.8138  -10.0778    5.4833   -7.3399    1.7884   -7.3447    1.7858
  9.480   -9.0491    3.3589   -3.4438    2.9811  -10.7613    1.0342   -9.9563    4.6048   -7.1231    1.7287   -7.1272    1.7263
  9.490   -9.0387    2.9570   -3.5285    3.5282  -10.0017    0.6080   -9.8040    4.0330   -6.9392    1.7582   -6.9428    1.7561
  9.500   -9.0091    2.6378   -3.7266    4.1451   -9.3552    0.4027   -9.7000    3.6485   -6.8017    1.8652   -6.8047    1.8634
  9.510   -8.9798    2.3732   -4.1056    4.8025   -8.8161    0.3503   -9.6708    3.3601   -6.7348    2.0377   -6.7374    2.0361
  9.520   -8.9583    2.1386   -4.7241    5.4197   -8.3869    0.4109   -9.7141    3.0950   -6.7683    2.2483   -6.7705    2.2471
  9.530   -8.9404    1.9132   -5.5890    5.8658   -8.0782    0.5474   -9.7998    2.7970   -6.9209    2.4465   -6.9228    2.4458
  9.540   -8.9129    1.6859   -6.6113    6.0053   -7.8958    0.7125   -9.8750    2.4398   -7.1779    2.5688   -7.1797    2.5685
  9.550   -8.8611    1.4595   -7.6180    5.7816   -7.8237    0.8556   -9.8861    2.0386   -7.4841    2.5692   -7.4858    2.5693
  9.560   -8.7786    1.2465   -8.4385    5.2620   -7.8228    0.9426   -9.8084    1.6382   -7.7687    2.4471   -7.7704    2.4477
  9.570   -8.6706    1.0595   -8.9905    4.5892   -7.8497    0.9673   -9.6533    1.2824   -7.9824    2.2415   -7.9841    2.2424
  9.580   -8.5480    0.9039   -9.2873    3.8972   -7.8736    0.9439   -9.4516    0.9930   -8.1117    2.0011   -8.1136    2.0022
  9.590   -8.4214    0.7785   -9.3911    3.2671   -7.8809    0.8916   -9.2328    0.7706   -8.1678    1.7623   -8.1699    1.7636
  9.600   -8.2976    0.6787   -9.3689    2.7305   -7.8692    0.8265   -9.0168    0.6049   -8.1703    1.5444   -8.1725    1.5460
  9.610   -8.1802    0.5990   -9.2733    2.2890   -7.8417    0.7586   -8.8140    0.4829   -8.1375    1.3546   -8.1398    1.3562
  9.620   -8.0705    0.5349   -9.1395    1.9314   -7.8024    0.6934   -8.6285    0.3930   -8.0831    1.1928   -8.0856    1.1945
  9.630   -7.9687    0.4825   -8.9893    1.6433   -7.7553    0.6334   -8.4607    0.3264   -8.0167    1.0562   -8.0193    1.0579
  9.640   -7.8745    0.4392   -8.8352    1.4107   -7.7034    0.5794   -8.3096    0.2764   -7.9443    0.9412   -7.9470    0.9429
  9.650   -7.7870    0.4029   -8.6841    1.2220   -7.6489    0.5315   -8.1733    0.2385   -7.8698    0.8441   -7.8726    0.8459
  9.660   -7.7057    0.3720   -8.5397    1.0678   -7.5934    0.4891   -8.0501    0.2093   -7.7954    0.7618   -7.7983    0.7636
  9.670   -7.6297    0.3455   -8.4034    0.9408   -7.5377    0.4517   -7.9382    0.1865   -7.7225    0.6916   -7.7254    0.6934
  9.680   -7.5586    0.3225   -8.2758    0.8354   -7.4827    0.4187   -7.8360    0.1685   -7.6518    0.6315   -7.6548    0.6333
  9.690   -7.4917    0.3024   -8.1568    0.7472   -7.4287    0.3896   -7.7423    0.1540   -7.5837    0.5796   -7.5867    0.5813
  9.700   -7.4287    0.2847   -8.0458    0.6728   -7.3760    0.3638   -7.6558    0.1423   -7.5183    0.5345   -7.5213    0.5363
  9.710   -7.3690    0.2689   -7.9424    0.6096   -7.3247    0.3408   -7.5757    0.1327   -7.4556    0.4951   -7.4587    0.4969
  9.720   -7.3123    0.2549   -7.8459    0.5554   -7.2749    0.3203   -7.5012    0.1247   -7.3955    0.4605   -7.3986    0.4623
  9.730   -7.2584    0.2422   -7.7557    0.5088   -7.2267    0.3020   -7.4315    0.1180   -7.3380    0.4300   -7.3412    0.4318
  9.740   -7.2069    0.2308   -7.6712    0.4684   -7.1798    0.2855   -7.3660    0.1124   -7.2829    0.4029   -7.2861    0.4047
  9.750   -7.1577    0.2205   -7.5918    0.4332   -7.1345    0.2706   -7.3044    0.1076   -7.2301    0.3788   -7.2332    0.3805
  9.760   -7.1105    0.2111   -7.5171    0.4022   -7.0905    0.2572   -7.2461    0.1034   -7.1793    0.3572   -7.1825    0.3589
  9.770   -7.0651    0.2025   -7.4467    0.3750   -7.0479    0.2451   -7.1908    0.0998   -7.1305    0.3378   -7.1337    0.3395
  9.780   -7.0214    0.1947   -7.3800    0.3509   -7.0065    0.2340   -7.1383    0.0966   -7.0836    0.3202   -7.0868    0.3219
  9.790   -6.9793    0.1874   -7.3168    0.3294   -6.9663    0.2239   -7.0881    0.0938   -7.0383    0.3043   -7.0415    0.3060
  9.800   -6.9385    0.1808   -7.2568    0.3103   -6.9272    0.2147   -7.0402    0.0914   -6.9946    0.2899   -6.9978    0.2916
  9.810   -6.8991    0.1746   -7.1997    0.2931   -6.8893    0.2062   -6.9942    0.0892   -6.9524    0.2767   -6.9556    0.2784
  9.820   -6.8609    0.1689   -7.1451    0.2776   -6.8523    0.1984   -6.9501    0.0872   -6.9115    0.2647   -6.9148    0.2664
  9.830   -6.8239    0.1636   -7.0930    0.2636   -6.8163    0.1912   -6.9076    0.0854   -6.8720    0.2537   -6.8752    0.2553
  9.840   -6.7879    0.1587   -7.0431    0.2510   -6.7812    0.1846   -6.8667    0.0838   -6.8336    0.2435   -6.8368    0.2452
  9.850   -6.7528    0.1541   -6.9951    0.2394   -6.7470    0.1784   -6.8271    0.0823   -6.7963    0.2341   -6.7995    0.2358
  9.860   -6.7187    0.1498   -6.9490    0.2289   -6.7136    0.1727   -6.7888    0.0809   -6.7601    0.2255   -6.7633    0.2271
  9.870   -6.6854    0.1457   -6.9047    0.2193   -6.6809    0.1674   -6.7517    0.0797   -6.7248    0.2175   -6.7280    0.2191
  9.880   -6.6530    0.1420   -6.8619    0.2105   -6.6490    0.1625   -6.7157    0.0785   -6.6904    0.2100   -6.6937    0.2117
  9.890   -6.6213    0.1384   -6.8205    0.2024   -6.6177    0.1578   -6.6807    0.0775   -6.6569    0.2031   -6.6602    0.2047
  9.900   -6.5902    0.1351   -6.7805    0.1949   -6.5871    0.1535   -6.6467    0.0765   -6.6243    0.1967   -6.6275    0.1983
  9.910   -6.5599    0.1319   -6.7418    0.1880   -6.5572    0.1495   -6.6136    0.0755   -6.5923    0.1907   -6.5955    0.1923
  9.920   -6.5302    0.1290   -6.7042    0.1816   -6.5278    0.1457   -6.5813    0.0746   -6.5611    0.1850   -6.5643    0.1866
  9.930   -6.5010    0.1261   -6.6678    0.1756   -6.4989    0.1421   -6.5497    0.0738   -6.5306    0.1798   -6.5338    0.1813
  9.940   -6.4725    0.1235   -6.6323    0.1701   -6.4706    0.1387   -6.5189    0.0730   -6.5007    0.1748   -6.5039    0.1764
  9.950   -6.4445    0.1210   -6.5978    0.1650   -6.4428    0.1356   -6.4888    0.0723   -6.4714    0.1701   -6.4746    0.1717
  9.960   -6.4169    0.1186   -6.5642    0.1602   -6.4155    0.1326   -6.4593    0.0716   -6.4426    0.1658   -6.4458    0.1673
  9.970   -6.3899    0.1163   -6.5314    0.1557   -6.3886    0.1297   -6.4304    0.0709   -6.4144    0.1616   -6.4177    0.1632
  9.980   -6.3633    0.1141   -6.4994    0.1515   -6.3622    0.1271   -6.4021    0.0703   -6.3868    0.1577   -6.3900    0.1593
  9.990   -6.3371    0.1121   -6.4682    0.1475   -6.3362    0.1245   -6.3743    0.0697   -6.3596    0.1540   -6.3628    0.1556
 10.000   -6.3114    0.1101   -6.4376    0.1438   -6.3106    0.1221   -6.3471    0.0691   -6.3329    0.1505   -6.3361    0.1521
